#X		#Y		#Wave		#Intensity
564.000000	-1689.000000	1819.619141	3766.511230
564.000000	-1689.000000	1818.654297	3797.618164
564.000000	-1689.000000	1817.689453	3791.604004
564.000000	-1689.000000	1816.724609	3806.321533
564.000000	-1689.000000	1815.759766	3802.898682
564.000000	-1689.000000	1814.794922	3776.167725
564.000000	-1689.000000	1813.829102	3798.647217
564.000000	-1689.000000	1812.863281	3839.238770
564.000000	-1689.000000	1811.897461	3796.987793
564.000000	-1689.000000	1810.931641	3793.571045
564.000000	-1689.000000	1809.964844	3826.375732
564.000000	-1689.000000	1808.999023	3802.261475
564.000000	-1689.000000	1808.032227	3894.528076
564.000000	-1689.000000	1807.064453	3867.824219
564.000000	-1689.000000	1806.097656	3877.320313
564.000000	-1689.000000	1805.130859	3845.463135
564.000000	-1689.000000	1804.163086	3883.381104
564.000000	-1689.000000	1803.195313	3996.195313
564.000000	-1689.000000	1802.226563	3974.663574
564.000000	-1689.000000	1801.258789	3829.202393
564.000000	-1689.000000	1800.290039	3877.416992
564.000000	-1689.000000	1799.321289	3863.668213
564.000000	-1689.000000	1798.352539	3818.960938
564.000000	-1689.000000	1797.383789	3846.507813
564.000000	-1689.000000	1796.414063	3825.037109
564.000000	-1689.000000	1795.445313	3891.251221
564.000000	-1689.000000	1794.475586	3911.030029
564.000000	-1689.000000	1793.505859	3892.136963
564.000000	-1689.000000	1792.535156	3901.599121
564.000000	-1689.000000	1791.565430	3993.503662
564.000000	-1689.000000	1790.594727	3946.270020
564.000000	-1689.000000	1789.624023	3947.988281
564.000000	-1689.000000	1788.652344	3990.902100
564.000000	-1689.000000	1787.681641	4000.332520
564.000000	-1689.000000	1786.709961	3855.339600
564.000000	-1689.000000	1785.738281	3875.087891
564.000000	-1689.000000	1784.766602	3992.583984
564.000000	-1689.000000	1783.794922	3904.270508
564.000000	-1689.000000	1782.822266	4016.566650
564.000000	-1689.000000	1781.850586	3995.128906
564.000000	-1689.000000	1780.877930	3919.724121
564.000000	-1689.000000	1779.904297	4062.781006
564.000000	-1689.000000	1778.931641	3969.409668
564.000000	-1689.000000	1777.958008	4068.726807
564.000000	-1689.000000	1776.984375	4006.211670
564.000000	-1689.000000	1776.010742	3946.291016
564.000000	-1689.000000	1775.037109	3994.209473
564.000000	-1689.000000	1774.063477	4019.009033
564.000000	-1689.000000	1773.088867	4202.881836
564.000000	-1689.000000	1772.114258	4063.445801
564.000000	-1689.000000	1771.139648	4170.286621
564.000000	-1689.000000	1770.164063	4128.357910
564.000000	-1689.000000	1769.189453	4019.792236
564.000000	-1689.000000	1768.213867	3993.292480
564.000000	-1689.000000	1767.238281	4066.742920
564.000000	-1689.000000	1766.262695	4155.533691
564.000000	-1689.000000	1765.286133	4088.038818
564.000000	-1689.000000	1764.310547	4135.812500
564.000000	-1689.000000	1763.333984	4175.884766
564.000000	-1689.000000	1762.357422	4064.913330
564.000000	-1689.000000	1761.379883	4122.897949
564.000000	-1689.000000	1760.403320	4086.186768
564.000000	-1689.000000	1759.425781	4205.536621
564.000000	-1689.000000	1758.448242	4104.884277
564.000000	-1689.000000	1757.470703	4311.116699
564.000000	-1689.000000	1756.493164	4167.025879
564.000000	-1689.000000	1755.514648	4260.695801
564.000000	-1689.000000	1754.536133	4280.220215
564.000000	-1689.000000	1753.557617	4235.866211
564.000000	-1689.000000	1752.579102	4255.387695
564.000000	-1689.000000	1751.600586	4213.611816
564.000000	-1689.000000	1750.621094	4358.233887
564.000000	-1689.000000	1749.641602	4191.376465
564.000000	-1689.000000	1748.662109	4111.360352
564.000000	-1689.000000	1747.682617	4171.711426
564.000000	-1689.000000	1746.702148	4214.179688
564.000000	-1689.000000	1745.721680	4282.133789
564.000000	-1689.000000	1744.741211	4283.762207
564.000000	-1689.000000	1743.760742	4298.136719
564.000000	-1689.000000	1742.780273	4292.114746
564.000000	-1689.000000	1741.798828	4286.095703
564.000000	-1689.000000	1740.817383	4331.032227
564.000000	-1689.000000	1739.835938	4381.043457
564.000000	-1689.000000	1738.854492	4375.008789
564.000000	-1689.000000	1737.872070	4330.786133
564.000000	-1689.000000	1736.890625	4406.220215
564.000000	-1689.000000	1735.908203	4473.986816
564.000000	-1689.000000	1734.925781	4457.759766
564.000000	-1689.000000	1733.942383	4492.416016
564.000000	-1689.000000	1732.959961	4374.460449
564.000000	-1689.000000	1731.976563	4353.179199
564.000000	-1689.000000	1730.993164	4382.751465
564.000000	-1689.000000	1730.009766	4460.602051
564.000000	-1689.000000	1729.025391	4533.337402
564.000000	-1689.000000	1728.041992	4501.877930
564.000000	-1689.000000	1727.057617	4544.092773
564.000000	-1689.000000	1726.073242	4499.947266
564.000000	-1689.000000	1725.087891	4509.138184
564.000000	-1689.000000	1724.103516	4564.015625
564.000000	-1689.000000	1723.118164	4573.188965
564.000000	-1689.000000	1722.132813	4574.746094
564.000000	-1689.000000	1721.147461	4556.008301
564.000000	-1689.000000	1720.162109	4522.061523
564.000000	-1689.000000	1719.175781	4637.733398
564.000000	-1689.000000	1718.189453	4598.713379
564.000000	-1689.000000	1717.203125	4592.659180
564.000000	-1689.000000	1716.216797	4642.356934
564.000000	-1689.000000	1715.229492	4636.295898
564.000000	-1689.000000	1714.243164	4693.561523
564.000000	-1689.000000	1713.255859	4614.052246
564.000000	-1689.000000	1712.268555	4630.787598
564.000000	-1689.000000	1711.280273	4736.112793
564.000000	-1689.000000	1710.292969	4859.107910
564.000000	-1689.000000	1709.304688	4797.342773
564.000000	-1689.000000	1708.316406	4606.588867
564.000000	-1689.000000	1707.328125	4719.416016
564.000000	-1689.000000	1706.339844	4854.952637
564.000000	-1689.000000	1705.350586	4730.038574
564.000000	-1689.000000	1704.361328	4681.003906
564.000000	-1689.000000	1703.372070	4849.312500
564.000000	-1689.000000	1702.382813	4926.596680
564.000000	-1689.000000	1701.392578	4917.966309
564.000000	-1689.000000	1700.403320	5065.912598
564.000000	-1689.000000	1699.413086	4963.836914
564.000000	-1689.000000	1698.421875	5033.457031
564.000000	-1689.000000	1697.431641	5042.477051
564.000000	-1689.000000	1696.441406	4968.227051
564.000000	-1689.000000	1695.450195	5100.868652
564.000000	-1689.000000	1694.458984	5097.257324
564.000000	-1689.000000	1693.467773	5108.777344
564.000000	-1689.000000	1692.475586	5084.997070
564.000000	-1689.000000	1691.483398	5189.774414
564.000000	-1689.000000	1690.492188	5163.466797
564.000000	-1689.000000	1689.499023	5283.299316
564.000000	-1689.000000	1688.506836	5284.690918
564.000000	-1689.000000	1687.514648	5346.523438
564.000000	-1689.000000	1686.521484	5247.187012
564.000000	-1689.000000	1685.528320	5359.346680
564.000000	-1689.000000	1684.535156	5408.539551
564.000000	-1689.000000	1683.541016	5435.064941
564.000000	-1689.000000	1682.547852	5451.516113
564.000000	-1689.000000	1681.553711	5500.657227
564.000000	-1689.000000	1680.559570	5597.555176
564.000000	-1689.000000	1679.565430	5649.157715
564.000000	-1689.000000	1678.570313	5461.951172
564.000000	-1689.000000	1677.575195	5468.326172
564.000000	-1689.000000	1676.580078	5540.023438
564.000000	-1689.000000	1675.584961	5576.521973
564.000000	-1689.000000	1674.589844	5600.448242
564.000000	-1689.000000	1673.593750	5664.538574
564.000000	-1689.000000	1672.598633	5713.538574
564.000000	-1689.000000	1671.602539	5624.479004
564.000000	-1689.000000	1670.605469	5635.827637
564.000000	-1689.000000	1669.609375	5669.750000
564.000000	-1689.000000	1668.612305	5731.248047
564.000000	-1689.000000	1667.616211	5677.366699
564.000000	-1689.000000	1666.618164	5626.015625
564.000000	-1689.000000	1665.621094	5572.179688
564.000000	-1689.000000	1664.624023	5653.694336
564.000000	-1689.000000	1663.625977	5532.225098
564.000000	-1689.000000	1662.627930	5413.312988
564.000000	-1689.000000	1661.629883	5607.509766
564.000000	-1689.000000	1660.630859	5648.883789
564.000000	-1689.000000	1659.632813	5660.199219
564.000000	-1689.000000	1658.633789	5726.572754
564.000000	-1689.000000	1657.634766	5485.130371
564.000000	-1689.000000	1656.635742	5406.407715
564.000000	-1689.000000	1655.635742	5487.800293
564.000000	-1689.000000	1654.635742	5424.114746
564.000000	-1689.000000	1653.636719	5475.465820
564.000000	-1689.000000	1652.635742	5444.305664
564.000000	-1689.000000	1651.635742	5450.645508
564.000000	-1689.000000	1650.634766	5394.517090
564.000000	-1689.000000	1649.634766	5350.903320
564.000000	-1689.000000	1648.633789	5659.462891
564.000000	-1689.000000	1647.631836	5468.485840
564.000000	-1689.000000	1646.630859	5457.337891
564.000000	-1689.000000	1645.628906	5575.984375
564.000000	-1689.000000	1644.627930	5632.194824
564.000000	-1689.000000	1643.625000	5658.441895
564.000000	-1689.000000	1642.623047	5597.375000
564.000000	-1689.000000	1641.621094	5720.877930
564.000000	-1689.000000	1640.618164	5834.354980
564.000000	-1689.000000	1639.615234	5683.548828
564.000000	-1689.000000	1638.612305	5826.892090
564.000000	-1689.000000	1637.608398	5725.985352
564.000000	-1689.000000	1636.605469	5779.575684
564.000000	-1689.000000	1635.601563	5631.398926
564.000000	-1689.000000	1634.597656	5513.166504
564.000000	-1689.000000	1633.593750	5521.954590
564.000000	-1689.000000	1632.588867	5568.074219
564.000000	-1689.000000	1631.583984	5611.686035
564.000000	-1689.000000	1630.579102	5483.605469
564.000000	-1689.000000	1629.574219	5348.116699
564.000000	-1689.000000	1628.569336	5431.538086
564.000000	-1689.000000	1627.563477	5378.169922
564.000000	-1689.000000	1626.557617	5379.514160
564.000000	-1689.000000	1625.551758	5338.605957
564.000000	-1689.000000	1624.545898	5426.927734
564.000000	-1689.000000	1623.540039	5376.089355
564.000000	-1689.000000	1622.533203	5238.339355
564.000000	-1689.000000	1621.526367	5212.394531
564.000000	-1689.000000	1620.519531	5176.529785
564.000000	-1689.000000	1619.512695	5155.573730
564.000000	-1689.000000	1618.504883	5303.381348
564.000000	-1689.000000	1617.497070	5242.708008
564.000000	-1689.000000	1616.489258	5258.959961
564.000000	-1689.000000	1615.481445	5190.880859
564.000000	-1689.000000	1614.473633	5288.963379
564.000000	-1689.000000	1613.464844	5337.422363
564.000000	-1689.000000	1612.456055	5276.805176
564.000000	-1689.000000	1611.447266	5183.999023
564.000000	-1689.000000	1610.438477	5358.800781
564.000000	-1689.000000	1609.428711	5273.447266
564.000000	-1689.000000	1608.419922	5277.281738
564.000000	-1689.000000	1607.410156	5385.102051
564.000000	-1689.000000	1606.399414	5272.567383
564.000000	-1689.000000	1605.389648	5469.437988
564.000000	-1689.000000	1604.378906	5396.521973
564.000000	-1689.000000	1603.369141	5439.905762
564.000000	-1689.000000	1602.358398	5463.484863
564.000000	-1689.000000	1601.346680	5529.090332
564.000000	-1689.000000	1600.335938	5453.750488
564.000000	-1689.000000	1599.324219	5289.460938
564.000000	-1689.000000	1598.312500	5330.349121
564.000000	-1689.000000	1597.300781	5326.748047
564.000000	-1689.000000	1596.289063	5211.992188
564.000000	-1689.000000	1595.276367	5502.301270
564.000000	-1689.000000	1594.263672	5434.468750
564.000000	-1689.000000	1593.250977	5295.076172
564.000000	-1689.000000	1592.238281	5180.423340
564.000000	-1689.000000	1591.224609	5278.025391
564.000000	-1689.000000	1590.211914	5225.099121
564.000000	-1689.000000	1589.198242	5236.323730
564.000000	-1689.000000	1588.184570	5289.463867
564.000000	-1689.000000	1587.169922	5298.203613
564.000000	-1689.000000	1586.156250	5338.983398
564.000000	-1689.000000	1585.141602	5352.637695
564.000000	-1689.000000	1584.126953	5307.152832
564.000000	-1689.000000	1583.112305	5382.391113
564.000000	-1689.000000	1582.096680	5314.753418
564.000000	-1689.000000	1581.081055	5303.776855
564.000000	-1689.000000	1580.066406	5442.973145
564.000000	-1689.000000	1579.049805	5267.070313
564.000000	-1689.000000	1578.034180	5354.539063
564.000000	-1689.000000	1577.018555	5318.960938
564.000000	-1689.000000	1576.001953	5278.478027
564.000000	-1689.000000	1574.985352	5343.755859
564.000000	-1689.000000	1573.967773	5229.524902
564.000000	-1689.000000	1572.951172	5390.651367
564.000000	-1689.000000	1571.933594	5266.628418
564.000000	-1689.000000	1570.916016	5326.937988
564.000000	-1689.000000	1569.898438	5335.634277
564.000000	-1689.000000	1568.880859	5324.678711
564.000000	-1689.000000	1567.862305	5343.193359
564.000000	-1689.000000	1566.844727	5351.879883
564.000000	-1689.000000	1565.826172	5343.381348
564.000000	-1689.000000	1564.807617	5361.879395
564.000000	-1689.000000	1563.788086	5365.648926
564.000000	-1689.000000	1562.768555	5251.676758
564.000000	-1689.000000	1561.750000	5277.539063
564.000000	-1689.000000	1560.729492	5443.146484
564.000000	-1689.000000	1559.709961	5415.026855
564.000000	-1689.000000	1558.690430	5359.959473
564.000000	-1689.000000	1557.669922	5432.331543
564.000000	-1689.000000	1556.649414	5448.327637
564.000000	-1689.000000	1555.628906	5263.476563
564.000000	-1689.000000	1554.607422	5372.553223
564.000000	-1689.000000	1553.586914	5415.481445
564.000000	-1689.000000	1552.565430	5443.704590
564.000000	-1689.000000	1551.543945	5503.729492
564.000000	-1689.000000	1550.521484	5358.208008
564.000000	-1689.000000	1549.500000	5369.301270
564.000000	-1689.000000	1548.477539	5465.987305
564.000000	-1689.000000	1547.455078	5477.052734
564.000000	-1689.000000	1546.432617	5299.879395
564.000000	-1689.000000	1545.409180	5530.941406
564.000000	-1689.000000	1544.386719	5427.138184
564.000000	-1689.000000	1543.363281	5477.290039
564.000000	-1689.000000	1542.339844	5307.593262
564.000000	-1689.000000	1541.315430	5423.682617
564.000000	-1689.000000	1540.291992	5429.855469
564.000000	-1689.000000	1539.267578	5345.709961
564.000000	-1689.000000	1538.243164	5522.727051
564.000000	-1689.000000	1537.218750	5536.194336
564.000000	-1689.000000	1536.193359	5317.911133
564.000000	-1689.000000	1535.168945	5370.437500
564.000000	-1689.000000	1534.143555	5398.557129
564.000000	-1689.000000	1533.118164	5424.227051
564.000000	-1689.000000	1532.091797	5484.008301
564.000000	-1689.000000	1531.066406	5509.648438
564.000000	-1689.000000	1530.040039	5574.258301
564.000000	-1689.000000	1529.013672	5470.770996
564.000000	-1689.000000	1527.987305	5569.455078
564.000000	-1689.000000	1526.959961	5451.403809
564.000000	-1689.000000	1525.933594	5520.837891
564.000000	-1689.000000	1524.906250	5495.327637
564.000000	-1689.000000	1523.878906	5365.200684
564.000000	-1689.000000	1522.850586	5553.809570
564.000000	-1689.000000	1521.823242	5506.417969
564.000000	-1689.000000	1520.794922	5461.478027
564.000000	-1689.000000	1519.766602	5499.214844
564.000000	-1689.000000	1518.738281	5515.060547
564.000000	-1689.000000	1517.708984	5521.178223
564.000000	-1689.000000	1516.680664	5702.222656
564.000000	-1689.000000	1515.651367	5411.951660
564.000000	-1689.000000	1514.622070	5636.655762
564.000000	-1689.000000	1513.591797	5465.495117
564.000000	-1689.000000	1512.562500	5488.607910
564.000000	-1689.000000	1511.532227	5480.159668
564.000000	-1689.000000	1510.501953	5663.406250
564.000000	-1689.000000	1509.471680	5555.458984
564.000000	-1689.000000	1508.440430	5588.233398
564.000000	-1689.000000	1507.409180	5557.945313
564.000000	-1689.000000	1506.378906	5617.373047
564.000000	-1689.000000	1505.346680	5676.775391
564.000000	-1689.000000	1504.315430	5731.305176
564.000000	-1689.000000	1503.283203	5606.519043
564.000000	-1689.000000	1502.251953	5702.219727
564.000000	-1689.000000	1501.219727	5630.772461
564.000000	-1689.000000	1500.186523	5714.320313
564.000000	-1689.000000	1499.154297	5681.632813
564.000000	-1689.000000	1498.121094	5719.147949
564.000000	-1689.000000	1497.087891	5780.844238
564.000000	-1689.000000	1496.054688	5702.196777
564.000000	-1689.000000	1495.021484	5802.569336
564.000000	-1689.000000	1493.987305	5752.968750
564.000000	-1689.000000	1492.953125	5669.541016
564.000000	-1689.000000	1491.918945	5738.431641
564.000000	-1689.000000	1490.884766	5901.543457
564.000000	-1689.000000	1489.849609	5767.396973
564.000000	-1689.000000	1488.814453	5795.155273
564.000000	-1689.000000	1487.779297	5895.355957
564.000000	-1689.000000	1486.744141	5792.685059
564.000000	-1689.000000	1485.708984	5965.266113
564.000000	-1689.000000	1484.672852	5918.136230
564.000000	-1689.000000	1483.636719	5919.287109
564.000000	-1689.000000	1482.600586	5918.024902
564.000000	-1689.000000	1481.564453	5817.868652
564.000000	-1689.000000	1480.527344	5867.270020
564.000000	-1689.000000	1479.490234	5853.963379
564.000000	-1689.000000	1478.453125	6108.228027
564.000000	-1689.000000	1477.416016	5971.965332
564.000000	-1689.000000	1476.378906	6281.513672
564.000000	-1689.000000	1475.340820	6241.629395
564.000000	-1689.000000	1474.302734	6201.762207
564.000000	-1689.000000	1473.264648	6282.308105
564.000000	-1689.000000	1472.226563	6307.448242
564.000000	-1689.000000	1471.187500	6342.205078
564.000000	-1689.000000	1470.148438	6559.833008
564.000000	-1689.000000	1469.109375	6286.567383
564.000000	-1689.000000	1468.070313	6388.655273
564.000000	-1689.000000	1467.030273	6517.152344
564.000000	-1689.000000	1465.991211	6657.616211
564.000000	-1689.000000	1464.951172	6735.519531
564.000000	-1689.000000	1463.910156	6683.610840
564.000000	-1689.000000	1462.870117	6646.140137
564.000000	-1689.000000	1461.829102	6711.983398
564.000000	-1689.000000	1460.788086	6789.806641
564.000000	-1689.000000	1459.747070	6886.806641
564.000000	-1689.000000	1458.706055	6866.127930
564.000000	-1689.000000	1457.664063	6927.065430
564.000000	-1689.000000	1456.623047	6784.000488
564.000000	-1689.000000	1455.581055	6883.315430
564.000000	-1689.000000	1454.538086	6841.064941
564.000000	-1689.000000	1453.496094	6813.221191
564.000000	-1689.000000	1452.453125	7020.359375
564.000000	-1689.000000	1451.410156	7069.196777
564.000000	-1689.000000	1450.367188	7031.733887
564.000000	-1689.000000	1449.324219	6953.552246
564.000000	-1689.000000	1448.280273	6999.975586
564.000000	-1689.000000	1447.236328	6964.944824
564.000000	-1689.000000	1446.192383	6822.172363
564.000000	-1689.000000	1445.148438	6823.104980
564.000000	-1689.000000	1444.103516	6812.068848
564.000000	-1689.000000	1443.059570	6947.012207
564.000000	-1689.000000	1442.014648	6737.373047
564.000000	-1689.000000	1440.968750	6747.888672
564.000000	-1689.000000	1439.923828	6686.654297
564.000000	-1689.000000	1438.877930	6733.040527
564.000000	-1689.000000	1437.832031	6724.424805
564.000000	-1689.000000	1436.786133	6603.484375
564.000000	-1689.000000	1435.740234	6602.067383
564.000000	-1689.000000	1434.693359	6681.875000
564.000000	-1689.000000	1433.646484	6525.192871
564.000000	-1689.000000	1432.599609	6404.396484
564.000000	-1689.000000	1431.552734	6548.653320
564.000000	-1689.000000	1430.504883	6485.188477
564.000000	-1689.000000	1429.458008	6521.977539
564.000000	-1689.000000	1428.410156	6456.158691
564.000000	-1689.000000	1427.361328	6526.332520
564.000000	-1689.000000	1426.313477	6613.169434
564.000000	-1689.000000	1425.264648	6523.528320
564.000000	-1689.000000	1424.215820	6493.520508
564.000000	-1689.000000	1423.166992	6527.874023
564.000000	-1689.000000	1422.118164	6676.586426
564.000000	-1689.000000	1421.068359	6548.890137
564.000000	-1689.000000	1420.018555	6580.826660
564.000000	-1689.000000	1418.968750	6519.879395
564.000000	-1689.000000	1417.918945	6556.568848
564.000000	-1689.000000	1416.869141	6474.229980
564.000000	-1689.000000	1415.818359	6622.759277
564.000000	-1689.000000	1414.767578	6545.198730
564.000000	-1689.000000	1413.716797	6550.925781
564.000000	-1689.000000	1412.665039	6689.828125
564.000000	-1689.000000	1411.613281	6643.211426
564.000000	-1689.000000	1410.562500	6637.026367
564.000000	-1689.000000	1409.509766	6673.623047
564.000000	-1689.000000	1408.458008	6565.258789
564.000000	-1689.000000	1407.405273	6623.234375
564.000000	-1689.000000	1406.353516	6659.808594
564.000000	-1689.000000	1405.300781	6755.730957
564.000000	-1689.000000	1404.247070	6853.985840
564.000000	-1689.000000	1403.194336	6771.806152
564.000000	-1689.000000	1402.140625	6748.987793
564.000000	-1689.000000	1401.086914	6837.688477
564.000000	-1689.000000	1400.033203	6705.750977
564.000000	-1689.000000	1398.978516	6744.619141
564.000000	-1689.000000	1397.923828	6622.241699
564.000000	-1689.000000	1396.870117	6601.847656
564.000000	-1689.000000	1395.814453	6688.111328
564.000000	-1689.000000	1394.759766	6582.409668
564.000000	-1689.000000	1393.704102	6654.425781
564.000000	-1689.000000	1392.648438	6724.041016
564.000000	-1689.000000	1391.592773	6646.813965
564.000000	-1689.000000	1390.537109	6650.111816
564.000000	-1689.000000	1389.480469	6691.278320
564.000000	-1689.000000	1388.424805	6609.373535
564.000000	-1689.000000	1387.368164	6536.966797
564.000000	-1689.000000	1386.310547	6637.264160
564.000000	-1689.000000	1385.253906	6683.125000
564.000000	-1689.000000	1384.196289	6613.112305
564.000000	-1689.000000	1383.138672	6680.231934
564.000000	-1689.000000	1382.081055	6806.405762
564.000000	-1689.000000	1381.022461	6665.524902
564.000000	-1689.000000	1379.964844	6569.588867
564.000000	-1689.000000	1378.906250	6787.812500
564.000000	-1689.000000	1377.847656	6736.754883
564.000000	-1689.000000	1376.788086	6664.471191
564.000000	-1689.000000	1375.729492	6613.460449
564.000000	-1689.000000	1374.669922	6595.508301
564.000000	-1689.000000	1373.610352	6749.787598
564.000000	-1689.000000	1372.549805	6812.008789
564.000000	-1689.000000	1371.490234	6718.560547
564.000000	-1689.000000	1370.429688	6665.232422
564.000000	-1689.000000	1369.369141	6600.141602
564.000000	-1689.000000	1368.308594	6528.007813
564.000000	-1689.000000	1367.247070	6531.302734
564.000000	-1689.000000	1366.185547	6628.821289
564.000000	-1689.000000	1365.124023	6476.651855
564.000000	-1689.000000	1364.062500	6564.720215
564.000000	-1689.000000	1363.000977	6473.836914
564.000000	-1689.000000	1361.938477	6608.938477
564.000000	-1689.000000	1360.875977	6600.441895
564.000000	-1689.000000	1359.813477	6519.018066
564.000000	-1689.000000	1358.750977	6604.626953
564.000000	-1689.000000	1357.687500	6518.533203
564.000000	-1689.000000	1356.624023	6608.805176
564.000000	-1689.000000	1355.560547	6682.583496
564.000000	-1689.000000	1354.497070	6479.025879
564.000000	-1689.000000	1353.432617	6522.255371
564.000000	-1689.000000	1352.368164	6668.821777
564.000000	-1689.000000	1351.303711	6655.625977
564.000000	-1689.000000	1350.239258	6708.178711
564.000000	-1689.000000	1349.173828	6753.665527
564.000000	-1689.000000	1348.108398	6752.192871
564.000000	-1689.000000	1347.042969	6600.547363
564.000000	-1689.000000	1345.977539	6709.366211
564.000000	-1689.000000	1344.912109	6787.646484
564.000000	-1689.000000	1343.845703	6835.407715
564.000000	-1689.000000	1342.779297	6625.264160
564.000000	-1689.000000	1341.712891	6855.861816
564.000000	-1689.000000	1340.645508	6842.646973
564.000000	-1689.000000	1339.579102	6916.123535
564.000000	-1689.000000	1338.511719	6975.513184
564.000000	-1689.000000	1337.444336	6908.416992
564.000000	-1689.000000	1336.375977	6761.744141
564.000000	-1689.000000	1335.308594	6898.373047
564.000000	-1689.000000	1334.240234	6824.314941
564.000000	-1689.000000	1333.171875	6939.811035
564.000000	-1689.000000	1332.102539	6788.578125
564.000000	-1689.000000	1331.034180	6885.320313
564.000000	-1689.000000	1329.964844	6967.989258
564.000000	-1689.000000	1328.895508	6929.059082
564.000000	-1689.000000	1327.825195	6752.249023
564.000000	-1689.000000	1326.755859	6832.554199
564.000000	-1689.000000	1325.685547	6835.729004
564.000000	-1689.000000	1324.615234	6831.894531
564.000000	-1689.000000	1323.544922	6856.083008
564.000000	-1689.000000	1322.473633	6959.638672
564.000000	-1689.000000	1321.403320	6976.784668
564.000000	-1689.000000	1320.332031	6877.240723
564.000000	-1689.000000	1319.259766	6934.058594
564.000000	-1689.000000	1318.188477	6941.866699
564.000000	-1689.000000	1317.116211	6907.691895
564.000000	-1689.000000	1316.043945	6878.195313
564.000000	-1689.000000	1314.971680	6911.649902
564.000000	-1689.000000	1313.898438	6823.899414
564.000000	-1689.000000	1312.826172	6934.241211
564.000000	-1689.000000	1311.752930	7014.250000
564.000000	-1689.000000	1310.679688	6893.926270
564.000000	-1689.000000	1309.605469	6987.877930
564.000000	-1689.000000	1308.532227	6842.003418
564.000000	-1689.000000	1307.458008	6840.497070
564.000000	-1689.000000	1306.383789	7043.764648
564.000000	-1689.000000	1305.308594	6960.786133
564.000000	-1689.000000	1304.234375	7098.809570
564.000000	-1689.000000	1303.159180	6918.185547
564.000000	-1689.000000	1302.083984	6939.909668
564.000000	-1689.000000	1301.007813	6966.271973
564.000000	-1689.000000	1299.932617	6974.030762
564.000000	-1689.000000	1298.856445	7074.720703
564.000000	-1689.000000	1297.780273	7031.347168
564.000000	-1689.000000	1296.703125	6955.479004
564.000000	-1689.000000	1295.626953	7179.162109
564.000000	-1689.000000	1294.549805	7073.115723
564.000000	-1689.000000	1293.472656	7064.590332
564.000000	-1689.000000	1292.395508	7162.801758
564.000000	-1689.000000	1291.317383	7026.669922
564.000000	-1689.000000	1290.239258	7150.356934
564.000000	-1689.000000	1289.161133	7053.705566
564.000000	-1689.000000	1288.083008	7114.737305
564.000000	-1689.000000	1287.003906	7122.433105
564.000000	-1689.000000	1285.925781	7127.807617
564.000000	-1689.000000	1284.846680	7232.798340
564.000000	-1689.000000	1283.766602	7087.590820
564.000000	-1689.000000	1282.687500	7394.007324
564.000000	-1689.000000	1281.607422	7281.239258
564.000000	-1689.000000	1280.527344	7295.827148
564.000000	-1689.000000	1279.447266	7308.093750
564.000000	-1689.000000	1278.366211	7281.021973
564.000000	-1689.000000	1277.286133	7422.819824
564.000000	-1689.000000	1276.205078	7407.296387
564.000000	-1689.000000	1275.124023	7368.657715
564.000000	-1689.000000	1274.041992	7369.332031
564.000000	-1689.000000	1272.959961	7464.759277
564.000000	-1689.000000	1271.877930	7386.851563
564.000000	-1689.000000	1270.795898	7318.217773
564.000000	-1689.000000	1269.713867	7570.638672
564.000000	-1689.000000	1268.630859	7640.533691
564.000000	-1689.000000	1267.547852	7456.461426
564.000000	-1689.000000	1266.464844	7459.417480
564.000000	-1689.000000	1265.381836	7596.204590
564.000000	-1689.000000	1264.297852	7529.917969
564.000000	-1689.000000	1263.213867	7440.594727
564.000000	-1689.000000	1262.129883	7540.397461
564.000000	-1689.000000	1261.044922	7432.666992
564.000000	-1689.000000	1259.960938	7532.424805
564.000000	-1689.000000	1258.875977	7625.224609
564.000000	-1689.000000	1257.791016	7704.158203
564.000000	-1689.000000	1256.705078	7707.044922
564.000000	-1689.000000	1255.619141	7532.610352
564.000000	-1689.000000	1254.534180	7777.277344
564.000000	-1689.000000	1253.447266	7683.466797
564.000000	-1689.000000	1252.361328	7868.154785
564.000000	-1689.000000	1251.274414	7719.145020
564.000000	-1689.000000	1250.187500	7728.919922
564.000000	-1689.000000	1249.100586	7906.572266
564.000000	-1689.000000	1248.013672	7762.249512
564.000000	-1689.000000	1246.925781	7595.002930
564.000000	-1689.000000	1245.837891	7682.932617
564.000000	-1689.000000	1244.750000	7807.584961
564.000000	-1689.000000	1243.662109	7688.678711
564.000000	-1689.000000	1242.573242	7634.131836
564.000000	-1689.000000	1241.484375	7772.485352
564.000000	-1689.000000	1240.395508	7752.376953
564.000000	-1689.000000	1239.306641	7759.817871
564.000000	-1689.000000	1238.216797	7723.656738
564.000000	-1689.000000	1237.126953	7604.923828
564.000000	-1689.000000	1236.037109	7571.105957
564.000000	-1689.000000	1234.946289	7507.491699
564.000000	-1689.000000	1233.856445	7641.064941
564.000000	-1689.000000	1232.765625	7561.417969
564.000000	-1689.000000	1231.674805	7470.348145
564.000000	-1689.000000	1230.583008	7415.974609
564.000000	-1689.000000	1229.492188	7471.567871
564.000000	-1689.000000	1228.400391	7531.714844
564.000000	-1689.000000	1227.307617	7504.834961
564.000000	-1689.000000	1226.215820	7292.561523
564.000000	-1689.000000	1225.123047	7306.937012
564.000000	-1689.000000	1224.030273	7280.123047
564.000000	-1689.000000	1222.937500	7264.756836
564.000000	-1689.000000	1221.844727	7359.166992
564.000000	-1689.000000	1220.750977	7364.365723
564.000000	-1689.000000	1219.657227	7271.269531
564.000000	-1689.000000	1218.563477	7379.323242
564.000000	-1689.000000	1217.469727	7368.517090
564.000000	-1689.000000	1216.375000	7387.410645
564.000000	-1689.000000	1215.280273	7287.538574
564.000000	-1689.000000	1214.185547	7306.439941
564.000000	-1689.000000	1213.089844	7302.504395
564.000000	-1689.000000	1211.995117	7198.151855
564.000000	-1689.000000	1210.899414	7278.664063
564.000000	-1689.000000	1209.802734	7450.387207
564.000000	-1689.000000	1208.707031	7206.947754
564.000000	-1689.000000	1207.610352	7417.369629
564.000000	-1689.000000	1206.513672	7349.578613
564.000000	-1689.000000	1205.416992	7498.334961
564.000000	-1689.000000	1204.320313	7328.016602
564.000000	-1689.000000	1203.222656	7276.235840
564.000000	-1689.000000	1202.125000	7347.466797
564.000000	-1689.000000	1201.027344	7411.833008
564.000000	-1689.000000	1199.928711	7421.532227
564.000000	-1689.000000	1198.830078	7433.502441
564.000000	-1689.000000	1197.731445	7222.465820
564.000000	-1689.000000	1196.632813	7289.073242
564.000000	-1689.000000	1195.533203	7405.687988
564.000000	-1689.000000	1194.434570	7301.674805
564.000000	-1689.000000	1193.334961	7229.536133
564.000000	-1689.000000	1192.234375	7384.721191
564.000000	-1689.000000	1191.134766	7251.239746
564.000000	-1689.000000	1190.034180	7313.200195
564.000000	-1689.000000	1188.933594	7277.462891
564.000000	-1689.000000	1187.832031	7366.637207
564.000000	-1689.000000	1186.731445	7362.686523
564.000000	-1689.000000	1185.629883	7449.528809
564.000000	-1689.000000	1184.528320	7402.442383
564.000000	-1689.000000	1183.426758	7400.751953
564.000000	-1689.000000	1182.324219	7437.621582
564.000000	-1689.000000	1181.221680	7426.851074
564.000000	-1689.000000	1180.119141	7411.549805
564.000000	-1689.000000	1179.016602	7482.389160
564.000000	-1689.000000	1177.913086	7512.403809
564.000000	-1689.000000	1176.809570	7549.200684
564.000000	-1689.000000	1175.706055	7552.002930
564.000000	-1689.000000	1174.601563	7466.481934
564.000000	-1689.000000	1173.498047	7439.865723
564.000000	-1689.000000	1172.393555	7487.959473
564.000000	-1689.000000	1171.289063	7468.138184
564.000000	-1689.000000	1170.183594	7502.625977
564.000000	-1689.000000	1169.078125	7643.412598
564.000000	-1689.000000	1167.972656	7469.782715
564.000000	-1689.000000	1166.867188	7443.196289
564.000000	-1689.000000	1165.761719	7653.971191
564.000000	-1689.000000	1164.655273	7523.395020
564.000000	-1689.000000	1163.548828	7659.490723
564.000000	-1689.000000	1162.442383	7481.533691
564.000000	-1689.000000	1161.334961	7554.339844
564.000000	-1689.000000	1160.227539	7590.984863
564.000000	-1689.000000	1159.120117	7559.891602
564.000000	-1689.000000	1158.012695	7508.500000
564.000000	-1689.000000	1156.904297	7687.275391
564.000000	-1689.000000	1155.795898	7498.271973
564.000000	-1689.000000	1154.687500	7620.583008
564.000000	-1689.000000	1153.579102	7585.003906
564.000000	-1689.000000	1152.469727	7466.033203
564.000000	-1689.000000	1151.360352	7601.786133
564.000000	-1689.000000	1150.250977	7478.357910
564.000000	-1689.000000	1149.141602	7451.850586
564.000000	-1689.000000	1148.031250	7519.945313
564.000000	-1689.000000	1146.920898	7533.967773
564.000000	-1689.000000	1145.810547	7624.520996
564.000000	-1689.000000	1144.699219	7595.749512
564.000000	-1689.000000	1143.588867	7420.735840
564.000000	-1689.000000	1142.477539	7538.243164
564.000000	-1689.000000	1141.365234	7471.275391
564.000000	-1689.000000	1140.253906	7554.986816
564.000000	-1689.000000	1139.141602	7506.027832
564.000000	-1689.000000	1138.029297	7529.008789
564.000000	-1689.000000	1136.916992	7540.743652
564.000000	-1689.000000	1135.803711	7516.528809
564.000000	-1689.000000	1134.690430	7624.832520
564.000000	-1689.000000	1133.577148	7620.815918
564.000000	-1689.000000	1132.463867	7610.065430
564.000000	-1689.000000	1131.349609	7540.965820
564.000000	-1689.000000	1130.235352	7700.766602
564.000000	-1689.000000	1129.121094	7721.407715
564.000000	-1689.000000	1128.006836	7665.784180
564.000000	-1689.000000	1126.891602	7818.713867
564.000000	-1689.000000	1125.776367	7756.366211
564.000000	-1689.000000	1124.661133	7691.804688
564.000000	-1689.000000	1123.544922	7676.567383
564.000000	-1689.000000	1122.428711	7733.020996
564.000000	-1689.000000	1121.312500	7681.944824
564.000000	-1689.000000	1120.196289	7626.413086
564.000000	-1689.000000	1119.079102	7617.916504
564.000000	-1689.000000	1117.962891	7694.468750
564.000000	-1689.000000	1116.844727	7800.072754
564.000000	-1689.000000	1115.727539	7697.583008
564.000000	-1689.000000	1114.609375	7906.013184
564.000000	-1689.000000	1113.491211	7745.409180
564.000000	-1689.000000	1112.373047	7736.890137
564.000000	-1689.000000	1111.254883	7706.023926
564.000000	-1689.000000	1110.135742	7822.642090
564.000000	-1689.000000	1109.016602	7787.300293
564.000000	-1689.000000	1107.897461	7982.009766
564.000000	-1689.000000	1106.777344	7897.522949
564.000000	-1689.000000	1105.658203	7902.366211
564.000000	-1689.000000	1104.537109	8150.470703
564.000000	-1689.000000	1103.416992	8057.075195
564.000000	-1689.000000	1102.296875	8155.564941
564.000000	-1689.000000	1101.175781	8075.590820
564.000000	-1689.000000	1100.054688	8205.243164
564.000000	-1689.000000	1098.932617	8127.521484
564.000000	-1689.000000	1097.810547	8087.722168
564.000000	-1689.000000	1096.688477	8219.504883
564.000000	-1689.000000	1095.566406	8282.168945
564.000000	-1689.000000	1094.444336	8162.182617
564.000000	-1689.000000	1093.321289	8166.937988
564.000000	-1689.000000	1092.198242	8258.504883
564.000000	-1689.000000	1091.075195	8256.555664
564.000000	-1689.000000	1089.951172	8397.004883
564.000000	-1689.000000	1088.827148	8237.086914
564.000000	-1689.000000	1087.703125	8495.338867
564.000000	-1689.000000	1086.579102	8635.627930
564.000000	-1689.000000	1085.454102	8642.477539
564.000000	-1689.000000	1084.329102	8809.330078
564.000000	-1689.000000	1083.204102	8727.260742
564.000000	-1689.000000	1082.078125	8649.670898
564.000000	-1689.000000	1080.953125	8818.621094
564.000000	-1689.000000	1079.827148	9027.453125
564.000000	-1689.000000	1078.700195	9054.169922
564.000000	-1689.000000	1077.574219	9180.734375
564.000000	-1689.000000	1076.447266	9242.897461
564.000000	-1689.000000	1075.320313	9353.828125
564.000000	-1689.000000	1074.192383	9362.695313
564.000000	-1689.000000	1073.065430	9564.441406
564.000000	-1689.000000	1071.937500	9564.384766
564.000000	-1689.000000	1070.808594	9526.655273
564.000000	-1689.000000	1069.680664	9371.520508
564.000000	-1689.000000	1068.551758	9287.336914
564.000000	-1689.000000	1067.422852	9475.567383
564.000000	-1689.000000	1066.293945	9130.155273
564.000000	-1689.000000	1065.164063	9147.899414
564.000000	-1689.000000	1064.034180	9119.165039
564.000000	-1689.000000	1062.904297	8944.428711
564.000000	-1689.000000	1061.774414	8844.976563
564.000000	-1689.000000	1060.643555	8915.836914
564.000000	-1689.000000	1059.512695	8814.224609
564.000000	-1689.000000	1058.381836	8593.307617
564.000000	-1689.000000	1057.250000	8821.061523
564.000000	-1689.000000	1056.118164	8606.873047
564.000000	-1689.000000	1054.986328	8600.397461
564.000000	-1689.000000	1053.854492	8540.928711
564.000000	-1689.000000	1052.721680	8488.110352
564.000000	-1689.000000	1051.588867	8521.389648
564.000000	-1689.000000	1050.456055	8437.707031
564.000000	-1689.000000	1049.323242	8627.604492
564.000000	-1689.000000	1048.189453	8453.509766
564.000000	-1689.000000	1047.055664	8555.113281
564.000000	-1689.000000	1045.921875	8548.650391
564.000000	-1689.000000	1044.787109	8584.063477
564.000000	-1689.000000	1043.652344	8590.814453
564.000000	-1689.000000	1042.517578	8676.862305
564.000000	-1689.000000	1041.382813	8683.584961
564.000000	-1689.000000	1040.247070	8670.486328
564.000000	-1689.000000	1039.111328	8879.716797
564.000000	-1689.000000	1037.975586	8712.527344
564.000000	-1689.000000	1036.838867	8895.241211
564.000000	-1689.000000	1035.702148	8943.689453
564.000000	-1689.000000	1034.565430	9007.505859
564.000000	-1689.000000	1033.428711	8996.539063
564.000000	-1689.000000	1032.291016	9066.902344
564.000000	-1689.000000	1031.153320	8954.837891
564.000000	-1689.000000	1030.015625	8998.811523
564.000000	-1689.000000	1028.876953	8798.957031
564.000000	-1689.000000	1027.738281	8869.294922
564.000000	-1689.000000	1026.599609	8930.815430
564.000000	-1689.000000	1025.460938	8770.625000
564.000000	-1689.000000	1024.321289	8658.786133
564.000000	-1689.000000	1023.181641	8665.463867
564.000000	-1689.000000	1022.041992	8722.582031
564.000000	-1689.000000	1020.902344	8685.383789
564.000000	-1689.000000	1019.761719	8703.006836
564.000000	-1689.000000	1018.621094	8681.170898
564.000000	-1689.000000	1017.480469	8694.401367
564.000000	-1689.000000	1016.338867	8604.666016
564.000000	-1689.000000	1015.197266	8473.361328
564.000000	-1689.000000	1014.055664	8701.202148
564.000000	-1689.000000	1012.913086	8631.226563
564.000000	-1689.000000	1011.771484	8705.723633
564.000000	-1689.000000	1010.627930	8609.522461
564.000000	-1689.000000	1009.485352	8629.299805
564.000000	-1689.000000	1008.342773	8600.955078
564.000000	-1689.000000	1007.199219	8953.044922
564.000000	-1689.000000	1006.054688	9116.982422
564.000000	-1689.000000	1004.911133	9322.359375
564.000000	-1689.000000	1003.766602	9584.436523
564.000000	-1689.000000	1002.622070	9730.621094
564.000000	-1689.000000	1001.477539	9442.183594
564.000000	-1689.000000	1000.332031	9086.208008
564.000000	-1689.000000	999.186523	8898.464844
564.000000	-1689.000000	998.041016	8741.360352
564.000000	-1689.000000	996.895508	8813.392578
564.000000	-1689.000000	995.749023	8623.668945
564.000000	-1689.000000	994.602539	8604.112305
564.000000	-1689.000000	993.455078	8769.857422
564.000000	-1689.000000	992.308594	8811.294922
564.000000	-1689.000000	991.161133	8815.669922
564.000000	-1689.000000	990.013672	8787.366211
564.000000	-1689.000000	988.865234	8813.519531
564.000000	-1689.000000	987.716797	8833.125977
564.000000	-1689.000000	986.568359	8900.610352
564.000000	-1689.000000	985.419922	8863.602539
564.000000	-1689.000000	984.270508	8780.922852
564.000000	-1689.000000	983.121094	8954.945313
564.000000	-1689.000000	981.971680	8928.819336
564.000000	-1689.000000	980.821289	8907.053711
564.000000	-1689.000000	979.671875	9265.660156
564.000000	-1689.000000	978.521484	9376.369141
564.000000	-1689.000000	977.370117	9632.575195
564.000000	-1689.000000	976.218750	9656.260742
564.000000	-1689.000000	975.067383	9979.580078
564.000000	-1689.000000	973.916016	10183.342773
564.000000	-1689.000000	972.764648	10560.625977
564.000000	-1689.000000	971.612305	11278.371094
564.000000	-1689.000000	970.459961	11815.714844
564.000000	-1689.000000	969.306641	12326.766602
564.000000	-1689.000000	968.153320	13147.607422
564.000000	-1689.000000	967.000000	14143.615234
564.000000	-1689.000000	965.846680	14952.758789
564.000000	-1689.000000	964.692383	16222.968750
564.000000	-1689.000000	963.539063	17156.816406
564.000000	-1689.000000	962.383789	17893.142578
564.000000	-1689.000000	961.229492	18388.792969
564.000000	-1689.000000	960.074219	18576.853516
564.000000	-1689.000000	958.918945	18576.562500
564.000000	-1689.000000	957.763672	18115.484375
564.000000	-1689.000000	956.607422	17464.310547
564.000000	-1689.000000	955.451172	16737.779297
564.000000	-1689.000000	954.294922	15996.475586
564.000000	-1689.000000	953.137695	15041.583984
564.000000	-1689.000000	951.980469	14272.977539
564.000000	-1689.000000	950.823242	13608.435547
564.000000	-1689.000000	949.666016	13153.697266
564.000000	-1689.000000	948.507813	12699.183594
564.000000	-1689.000000	947.349609	12141.289063
564.000000	-1689.000000	946.191406	11769.251953
564.000000	-1689.000000	945.032227	11354.250977
564.000000	-1689.000000	943.873047	11047.295898
564.000000	-1689.000000	942.713867	10721.086914
564.000000	-1689.000000	941.553711	10567.500000
564.000000	-1689.000000	940.394531	10267.432617
564.000000	-1689.000000	939.233398	10180.826172
564.000000	-1689.000000	938.073242	10010.250977
564.000000	-1689.000000	936.912109	9807.455078
564.000000	-1689.000000	935.750977	9804.993164
564.000000	-1689.000000	934.589844	9585.126953
564.000000	-1689.000000	933.427734	9423.471680
564.000000	-1689.000000	932.265625	9438.314453
564.000000	-1689.000000	931.103516	9354.206055
564.000000	-1689.000000	929.941406	9181.975586
564.000000	-1689.000000	928.778320	9168.914063
564.000000	-1689.000000	927.615234	9102.126953
564.000000	-1689.000000	926.451172	9035.371094
564.000000	-1689.000000	925.288086	8934.276367
564.000000	-1689.000000	924.124023	9020.075195
564.000000	-1689.000000	922.958984	8940.502930
564.000000	-1689.000000	921.794922	8929.659180
564.000000	-1689.000000	920.629883	8830.833008
564.000000	-1689.000000	919.464844	8768.527344
564.000000	-1689.000000	918.298828	8879.991211
564.000000	-1689.000000	917.132813	8819.845703
564.000000	-1689.000000	915.966797	8652.537109
564.000000	-1689.000000	914.800781	8665.348633
564.000000	-1689.000000	913.633789	8821.716797
564.000000	-1689.000000	912.466797	8817.337891
564.000000	-1689.000000	911.299805	8789.401367
564.000000	-1689.000000	910.131836	8727.218750
564.000000	-1689.000000	908.963867	8780.658203
564.000000	-1689.000000	907.795898	8757.027344
564.000000	-1689.000000	906.626953	8536.573242
564.000000	-1689.000000	905.458008	8637.072266
564.000000	-1689.000000	904.289063	8643.427734
564.000000	-1689.000000	903.120117	8602.746094
564.000000	-1689.000000	901.950195	8628.340820
564.000000	-1689.000000	900.780273	8709.476563
564.000000	-1689.000000	899.610352	8673.076172
564.000000	-1689.000000	898.439453	8621.743164
564.000000	-1689.000000	897.268555	8568.299805
564.000000	-1689.000000	896.097656	8713.399414
564.000000	-1689.000000	894.925781	8627.945313
564.000000	-1689.000000	893.753906	8813.488281
564.000000	-1689.000000	892.582031	8710.986328
564.000000	-1689.000000	891.409180	8602.137695
564.000000	-1689.000000	890.237305	8651.100586
564.000000	-1689.000000	889.063477	8593.470703
564.000000	-1689.000000	887.890625	8601.922852
564.000000	-1689.000000	886.716797	8885.167969
564.000000	-1689.000000	885.542969	8778.535156
564.000000	-1689.000000	884.369141	8708.150391
564.000000	-1689.000000	883.194336	8865.558594
564.000000	-1689.000000	882.019531	8818.591797
564.000000	-1689.000000	880.844727	8892.916016
564.000000	-1689.000000	879.668945	8752.377930
564.000000	-1689.000000	878.493164	8824.549805
564.000000	-1689.000000	877.317383	8769.132813
564.000000	-1689.000000	876.141602	8790.252930
564.000000	-1689.000000	874.964844	8790.112305
564.000000	-1689.000000	873.788086	8688.008789
564.000000	-1689.000000	872.610352	8704.880859
564.000000	-1689.000000	871.432617	8785.436523
564.000000	-1689.000000	870.254883	8738.594727
564.000000	-1689.000000	869.077148	8795.753906
564.000000	-1689.000000	867.898438	8952.590820
564.000000	-1689.000000	866.719727	8818.778320
564.000000	-1689.000000	865.541016	8659.589844
564.000000	-1689.000000	864.361328	8954.124023
564.000000	-1689.000000	863.181641	9009.025391
564.000000	-1689.000000	862.001953	9049.065430
564.000000	-1689.000000	860.821289	9027.656250
564.000000	-1689.000000	859.640625	8955.433594
564.000000	-1689.000000	858.459961	8919.236328
564.000000	-1689.000000	857.279297	9024.863281
564.000000	-1689.000000	856.097656	8927.299805
564.000000	-1689.000000	854.916016	9007.481445
564.000000	-1689.000000	853.733398	8909.969727
564.000000	-1689.000000	852.550781	8977.424805
564.000000	-1689.000000	851.368164	9125.166016
564.000000	-1689.000000	850.185547	9000.222656
564.000000	-1689.000000	849.001953	8864.779297
564.000000	-1689.000000	847.818359	8737.852539
564.000000	-1689.000000	846.634766	8967.846680
564.000000	-1689.000000	845.450195	8777.625000
564.000000	-1689.000000	844.265625	8874.525391
564.000000	-1689.000000	843.081055	8872.207031
564.000000	-1689.000000	841.895508	8789.732422
564.000000	-1689.000000	840.709961	8772.671875
564.000000	-1689.000000	839.524414	8941.146484
564.000000	-1689.000000	838.337891	8822.881836
564.000000	-1689.000000	837.151367	8892.213867
564.000000	-1689.000000	835.964844	8786.660156
564.000000	-1689.000000	834.778320	8874.916992
564.000000	-1689.000000	833.590820	8893.643555
564.000000	-1689.000000	832.403320	8857.630859
564.000000	-1689.000000	831.214844	8933.166992
564.000000	-1689.000000	830.026367	8892.951172
564.000000	-1689.000000	828.837891	8753.899414
564.000000	-1689.000000	827.649414	8566.556641
564.000000	-1689.000000	826.459961	8557.995117
564.000000	-1689.000000	825.270508	8583.063477
564.000000	-1689.000000	824.080078	8685.856445
564.000000	-1689.000000	822.890625	8599.546875
564.000000	-1689.000000	821.700195	8616.178711
564.000000	-1689.000000	820.508789	8825.946289
564.000000	-1689.000000	819.317383	8714.476563
564.000000	-1689.000000	818.125977	8817.089844
564.000000	-1689.000000	816.934570	8938.527344
564.000000	-1689.000000	815.742188	9030.538086
564.000000	-1689.000000	814.549805	9086.855469
564.000000	-1689.000000	813.357422	9078.163086
564.000000	-1689.000000	812.164063	9119.764648
564.000000	-1689.000000	810.970703	9180.198242
564.000000	-1689.000000	809.777344	9161.009766
564.000000	-1689.000000	808.583984	8949.193359
564.000000	-1689.000000	807.389648	8936.351563
564.000000	-1689.000000	806.194336	8823.063477
564.000000	-1689.000000	805.000000	8661.712891
564.000000	-1689.000000	803.804688	8628.036133
564.000000	-1689.000000	802.609375	8602.739258
564.000000	-1689.000000	801.413086	8483.380859
564.000000	-1689.000000	800.216797	8426.783203
564.000000	-1689.000000	799.020508	8487.221680
564.000000	-1689.000000	797.823242	8393.049805
564.000000	-1689.000000	796.626953	8296.838867
564.000000	-1689.000000	795.428711	8231.993164
564.000000	-1689.000000	794.231445	8373.812500
564.000000	-1689.000000	793.033203	8369.489258
564.000000	-1689.000000	791.834961	8406.888672
564.000000	-1689.000000	790.635742	8383.787109
564.000000	-1689.000000	789.436523	8366.949219
564.000000	-1689.000000	788.237305	8329.275391
564.000000	-1689.000000	787.038086	8424.986328
564.000000	-1689.000000	785.837891	8497.727539
564.000000	-1689.000000	784.637695	8393.396484
564.000000	-1689.000000	783.436523	8337.009766
564.000000	-1689.000000	782.235352	8451.342773
564.000000	-1689.000000	781.034180	8413.696289
564.000000	-1689.000000	779.833008	8355.262695
564.000000	-1689.000000	778.630859	8384.216797
564.000000	-1689.000000	777.428711	8442.264648
564.000000	-1689.000000	776.225586	8261.214844
564.000000	-1689.000000	775.023438	8387.843750
564.000000	-1689.000000	773.819336	8319.098633
564.000000	-1689.000000	772.616211	8354.245117
564.000000	-1689.000000	771.412109	8327.074219
564.000000	-1689.000000	770.208008	8299.916016
564.000000	-1689.000000	769.003906	8339.184570
564.000000	-1689.000000	767.798828	8386.730469
564.000000	-1689.000000	766.593750	8415.580078
564.000000	-1689.000000	765.387695	8187.263672
564.000000	-1689.000000	764.181641	8369.565430
564.000000	-1689.000000	762.975586	8446.061523
564.000000	-1689.000000	761.769531	8304.944336
564.000000	-1689.000000	760.562500	8375.198242
564.000000	-1689.000000	759.355469	8383.283203
564.000000	-1689.000000	758.147461	8370.658203
564.000000	-1689.000000	756.940430	8453.250977
564.000000	-1689.000000	755.731445	8481.995117
564.000000	-1689.000000	754.523438	8401.080078
564.000000	-1689.000000	753.314453	8295.388672
564.000000	-1689.000000	752.105469	8382.040039
564.000000	-1689.000000	750.896484	8319.815430
564.000000	-1689.000000	749.686523	8342.348633
564.000000	-1689.000000	748.476563	8290.495117
564.000000	-1689.000000	747.265625	8255.190430
564.000000	-1689.000000	746.054688	8347.919922
564.000000	-1689.000000	744.843750	8360.091797
564.000000	-1689.000000	743.631836	8233.991211
564.000000	-1689.000000	742.420898	8145.092773
564.000000	-1689.000000	741.208008	8291.369141
564.000000	-1689.000000	739.996094	8241.677734
564.000000	-1689.000000	738.783203	8189.949707
564.000000	-1689.000000	737.570313	8296.932617
564.000000	-1689.000000	736.356445	8364.709961
564.000000	-1689.000000	735.142578	8312.985352
564.000000	-1689.000000	733.928711	8257.169922
564.000000	-1689.000000	732.714844	8372.244141
564.000000	-1689.000000	731.500000	8291.742188
564.000000	-1689.000000	730.284180	8277.121094
564.000000	-1689.000000	729.069336	8361.236328
564.000000	-1689.000000	727.853516	8350.712891
564.000000	-1689.000000	726.637695	8255.908203
564.000000	-1689.000000	725.420898	8282.409180
564.000000	-1689.000000	724.204102	8261.637695
564.000000	-1589.000000	1819.619141	3929.821777
564.000000	-1589.000000	1818.654297	3960.928711
564.000000	-1589.000000	1817.689453	4009.303711
564.000000	-1589.000000	1816.724609	4003.244873
564.000000	-1589.000000	1815.759766	3960.921143
564.000000	-1589.000000	1814.794922	3895.306152
564.000000	-1589.000000	1813.829102	3948.832275
564.000000	-1589.000000	1812.863281	3984.213379
564.000000	-1589.000000	1811.897461	4125.697754
564.000000	-1589.000000	1810.931641	4021.288818
564.000000	-1589.000000	1809.964844	4002.301025
564.000000	-1589.000000	1808.999023	3965.215576
564.000000	-1589.000000	1808.032227	4137.612793
564.000000	-1589.000000	1807.064453	4015.194580
564.000000	-1589.000000	1806.097656	4107.374512
564.000000	-1589.000000	1805.130859	3891.980713
564.000000	-1589.000000	1804.163086	4103.000000
564.000000	-1589.000000	1803.195313	4091.773438
564.000000	-1589.000000	1802.226563	4137.369141
564.000000	-1589.000000	1801.258789	4061.588135
564.000000	-1589.000000	1800.290039	4055.540771
564.000000	-1589.000000	1799.321289	3992.715332
564.000000	-1589.000000	1798.352539	4071.837891
564.000000	-1589.000000	1797.383789	4148.346680
564.000000	-1589.000000	1796.414063	4070.066406
564.000000	-1589.000000	1795.445313	4192.958496
564.000000	-1589.000000	1794.475586	4060.562012
564.000000	-1589.000000	1793.505859	4121.541016
564.000000	-1589.000000	1792.535156	4185.070313
564.000000	-1589.000000	1791.565430	4122.326172
564.000000	-1589.000000	1790.594727	4057.033447
564.000000	-1589.000000	1789.624023	4277.630859
564.000000	-1589.000000	1788.652344	4168.561523
564.000000	-1589.000000	1787.681641	4255.180176
564.000000	-1589.000000	1786.709961	4110.131836
564.000000	-1589.000000	1785.738281	4096.374512
564.000000	-1589.000000	1784.766602	4236.975586
564.000000	-1589.000000	1783.794922	4166.612793
564.000000	-1589.000000	1782.822266	4237.709473
564.000000	-1589.000000	1781.850586	4175.089844
564.000000	-1589.000000	1780.877930	4266.715820
564.000000	-1589.000000	1779.904297	4209.256836
564.000000	-1589.000000	1778.931641	4303.405273
564.000000	-1589.000000	1777.958008	4240.825684
564.000000	-1589.000000	1776.984375	4247.611816
564.000000	-1589.000000	1776.010742	4339.123047
564.000000	-1589.000000	1775.037109	4263.741699
564.000000	-1589.000000	1774.063477	4347.510742
564.000000	-1589.000000	1773.088867	4225.974121
564.000000	-1589.000000	1772.114258	4273.800781
564.000000	-1589.000000	1771.139648	4336.995605
564.000000	-1589.000000	1770.164063	4282.209473
564.000000	-1589.000000	1769.189453	4371.011230
564.000000	-1589.000000	1768.213867	4318.804688
564.000000	-1589.000000	1767.238281	4289.683594
564.000000	-1589.000000	1766.262695	4247.765137
564.000000	-1589.000000	1765.286133	4405.655762
564.000000	-1589.000000	1764.310547	4353.486816
564.000000	-1589.000000	1763.333984	4273.177246
564.000000	-1589.000000	1762.357422	4208.260254
564.000000	-1589.000000	1761.379883	4243.181152
564.000000	-1589.000000	1760.403320	4319.025391
564.000000	-1589.000000	1759.425781	4410.185547
564.000000	-1589.000000	1758.448242	4396.446289
564.000000	-1589.000000	1757.470703	4408.283203
564.000000	-1589.000000	1756.493164	4389.437500
564.000000	-1589.000000	1755.514648	4421.718262
564.000000	-1589.000000	1754.536133	4338.993652
564.000000	-1589.000000	1753.557617	4407.038086
564.000000	-1589.000000	1752.579102	4531.247070
564.000000	-1589.000000	1751.600586	4397.478516
564.000000	-1589.000000	1750.621094	4488.444824
564.000000	-1589.000000	1749.641602	4405.794922
564.000000	-1589.000000	1748.662109	4430.367188
564.000000	-1589.000000	1747.682617	4437.067871
564.000000	-1589.000000	1746.702148	4400.399414
564.000000	-1589.000000	1745.721680	4391.801270
564.000000	-1589.000000	1744.741211	4444.403320
564.000000	-1589.000000	1743.760742	4466.391113
564.000000	-1589.000000	1742.780273	4470.528320
564.000000	-1589.000000	1741.798828	4574.043945
564.000000	-1589.000000	1740.817383	4468.605957
564.000000	-1589.000000	1739.835938	4472.739746
564.000000	-1589.000000	1738.854492	4622.026367
564.000000	-1589.000000	1737.872070	4524.284180
564.000000	-1589.000000	1736.890625	4617.494629
564.000000	-1589.000000	1735.908203	4473.986816
564.000000	-1589.000000	1734.925781	4612.967285
564.000000	-1589.000000	1733.942383	4645.046387
564.000000	-1589.000000	1732.959961	4644.049316
564.000000	-1589.000000	1731.976563	4592.197266
564.000000	-1589.000000	1730.993164	4736.117188
564.000000	-1589.000000	1730.009766	4676.642578
564.000000	-1589.000000	1729.025391	4817.941406
564.000000	-1589.000000	1728.041992	4743.231445
564.000000	-1589.000000	1727.057617	4759.994141
564.000000	-1589.000000	1726.073242	4870.710449
564.000000	-1589.000000	1725.087891	4752.875000
564.000000	-1589.000000	1724.103516	4787.393555
564.000000	-1589.000000	1723.118164	4750.837891
564.000000	-1589.000000	1722.132813	4871.609863
564.000000	-1589.000000	1721.147461	4913.690918
564.000000	-1589.000000	1720.162109	4806.117188
564.000000	-1589.000000	1719.175781	4782.266602
564.000000	-1589.000000	1718.189453	4961.235840
564.000000	-1589.000000	1717.203125	4934.827637
564.000000	-1589.000000	1716.216797	4936.305176
564.000000	-1589.000000	1715.229492	4806.040039
564.000000	-1589.000000	1714.243164	4931.658691
564.000000	-1589.000000	1713.255859	4905.279297
564.000000	-1589.000000	1712.268555	4840.932617
564.000000	-1589.000000	1711.280273	4943.681152
564.000000	-1589.000000	1710.292969	5033.731934
564.000000	-1589.000000	1709.304688	4944.096680
564.000000	-1589.000000	1708.316406	5046.757324
564.000000	-1589.000000	1707.328125	5012.798828
564.000000	-1589.000000	1706.339844	5150.801270
564.000000	-1589.000000	1705.350586	4980.318359
564.000000	-1589.000000	1704.361328	5039.915039
564.000000	-1589.000000	1703.372070	5165.187500
564.000000	-1589.000000	1702.382813	5161.557129
564.000000	-1589.000000	1701.392578	5218.550781
564.000000	-1589.000000	1700.403320	5247.740234
564.000000	-1589.000000	1699.413086	5153.200195
564.000000	-1589.000000	1698.421875	5063.749023
564.000000	-1589.000000	1697.431641	5307.472168
564.000000	-1589.000000	1696.441406	5265.967285
564.000000	-1589.000000	1695.450195	5244.661621
564.000000	-1589.000000	1694.458984	5493.234375
564.000000	-1589.000000	1693.467773	5459.280762
564.000000	-1589.000000	1692.475586	5460.636719
564.000000	-1589.000000	1691.483398	5527.525391
564.000000	-1589.000000	1690.492188	5561.625977
564.000000	-1589.000000	1689.499023	5603.270020
564.000000	-1589.000000	1688.506836	5612.150391
564.000000	-1589.000000	1687.514648	5588.288086
564.000000	-1589.000000	1686.521484	5589.613770
564.000000	-1589.000000	1685.528320	5747.012207
564.000000	-1589.000000	1684.535156	5562.062500
564.000000	-1589.000000	1683.541016	5852.759766
564.000000	-1589.000000	1682.547852	5755.915039
564.000000	-1589.000000	1681.553711	5749.658203
564.000000	-1589.000000	1680.559570	5826.385742
564.000000	-1589.000000	1679.565430	5923.193359
564.000000	-1589.000000	1678.570313	5753.523438
564.000000	-1589.000000	1677.575195	5882.974121
564.000000	-1589.000000	1676.580078	5864.133301
564.000000	-1589.000000	1675.584961	5965.874023
564.000000	-1589.000000	1674.589844	5916.886230
564.000000	-1589.000000	1673.593750	5985.930664
564.000000	-1589.000000	1672.598633	5957.041992
564.000000	-1589.000000	1671.602539	6013.499023
564.000000	-1589.000000	1670.605469	5964.542480
564.000000	-1589.000000	1669.609375	6033.517090
564.000000	-1589.000000	1668.612305	5931.904297
564.000000	-1589.000000	1667.616211	5940.672363
564.000000	-1589.000000	1666.618164	5989.550781
564.000000	-1589.000000	1665.621094	5973.236328
564.000000	-1589.000000	1664.624023	6002.038086
564.000000	-1589.000000	1663.625977	5960.671875
564.000000	-1589.000000	1662.627930	5916.818848
564.000000	-1589.000000	1661.629883	5760.282715
564.000000	-1589.000000	1660.630859	5891.766113
564.000000	-1589.000000	1659.632813	5910.540039
564.000000	-1589.000000	1658.633789	5776.630371
564.000000	-1589.000000	1657.634766	5888.007324
564.000000	-1589.000000	1656.635742	5694.115723
564.000000	-1589.000000	1655.635742	5697.907227
564.000000	-1589.000000	1654.635742	5736.707520
564.000000	-1589.000000	1653.636719	5725.486816
564.000000	-1589.000000	1652.635742	5831.755859
564.000000	-1589.000000	1651.635742	5753.042480
564.000000	-1589.000000	1650.634766	5801.791992
564.000000	-1589.000000	1649.634766	5760.589355
564.000000	-1589.000000	1648.633789	5904.223145
564.000000	-1589.000000	1647.631836	5922.944824
564.000000	-1589.000000	1646.630859	5791.868164
564.000000	-1589.000000	1645.628906	5848.044922
564.000000	-1589.000000	1644.627930	5951.610352
564.000000	-1589.000000	1643.625000	6037.667480
564.000000	-1589.000000	1642.623047	6118.698730
564.000000	-1589.000000	1641.621094	6149.818848
564.000000	-1589.000000	1640.618164	6078.699707
564.000000	-1589.000000	1639.615234	6246.917969
564.000000	-1589.000000	1638.612305	6173.315430
564.000000	-1589.000000	1637.608398	6142.104004
564.000000	-1589.000000	1636.605469	6145.781738
564.000000	-1589.000000	1635.601563	5952.695313
564.000000	-1589.000000	1634.597656	6026.135254
564.000000	-1589.000000	1633.593750	5892.906250
564.000000	-1589.000000	1632.588867	5769.689941
564.000000	-1589.000000	1631.583984	5663.945801
564.000000	-1589.000000	1630.579102	5792.120605
564.000000	-1589.000000	1629.574219	5773.478516
564.000000	-1589.000000	1628.569336	5655.365234
564.000000	-1589.000000	1627.563477	5624.327148
564.000000	-1589.000000	1626.557617	5660.421875
564.000000	-1589.000000	1625.551758	5611.998535
564.000000	-1589.000000	1624.545898	5628.201172
564.000000	-1589.000000	1623.540039	5609.616211
564.000000	-1589.000000	1622.533203	5484.235352
564.000000	-1589.000000	1621.526367	5540.187012
564.000000	-1589.000000	1620.519531	5506.735352
564.000000	-1589.000000	1619.512695	5567.622559
564.000000	-1589.000000	1618.504883	5586.294434
564.000000	-1589.000000	1617.497070	5540.448242
564.000000	-1589.000000	1616.489258	5507.024414
564.000000	-1589.000000	1615.481445	5530.656738
564.000000	-1589.000000	1614.473633	5611.310059
564.000000	-1589.000000	1613.464844	5647.305176
564.000000	-1589.000000	1612.456055	5519.701660
564.000000	-1589.000000	1611.447266	5652.343262
564.000000	-1589.000000	1610.438477	5646.188965
564.000000	-1589.000000	1609.428711	5538.481934
564.000000	-1589.000000	1608.419922	5492.731445
564.000000	-1589.000000	1607.410156	5657.452148
564.000000	-1589.000000	1606.399414	5631.498047
564.000000	-1589.000000	1605.389648	5612.979492
564.000000	-1589.000000	1604.378906	5690.967773
564.000000	-1589.000000	1603.369141	5771.395996
564.000000	-1589.000000	1602.358398	5785.011719
564.000000	-1589.000000	1601.346680	5736.802246
564.000000	-1589.000000	1600.335938	5733.113281
564.000000	-1589.000000	1599.324219	5618.198730
564.000000	-1589.000000	1598.312500	5794.932617
564.000000	-1589.000000	1597.300781	5556.519531
564.000000	-1589.000000	1596.289063	5676.377930
564.000000	-1589.000000	1595.276367	5744.323242
564.000000	-1589.000000	1594.263672	5493.727051
564.000000	-1589.000000	1593.250977	5677.704102
564.000000	-1589.000000	1592.238281	5562.970215
564.000000	-1589.000000	1591.224609	5514.907715
564.000000	-1589.000000	1590.211914	5637.087891
564.000000	-1589.000000	1589.198242	5552.032227
564.000000	-1589.000000	1588.184570	5479.342285
564.000000	-1589.000000	1587.169922	5648.294434
564.000000	-1589.000000	1586.156250	5681.605469
564.000000	-1589.000000	1585.141602	5512.822266
564.000000	-1589.000000	1584.126953	5597.888184
564.000000	-1589.000000	1583.112305	5569.604492
564.000000	-1589.000000	1582.096680	5585.663086
564.000000	-1589.000000	1581.081055	5591.865234
564.000000	-1589.000000	1580.066406	5649.761719
564.000000	-1589.000000	1579.049805	5695.327148
564.000000	-1589.000000	1578.034180	5499.722168
564.000000	-1589.000000	1577.018555	5572.361816
564.000000	-1589.000000	1576.001953	5612.994629
564.000000	-1589.000000	1574.985352	5572.457520
564.000000	-1589.000000	1573.967773	5595.861816
564.000000	-1589.000000	1572.951172	5614.340332
564.000000	-1589.000000	1571.933594	5598.403809
564.000000	-1589.000000	1570.916016	5651.271973
564.000000	-1589.000000	1569.898438	5654.986328
564.000000	-1589.000000	1568.880859	5661.155273
564.000000	-1589.000000	1567.862305	5682.053711
564.000000	-1589.000000	1566.844727	5695.578613
564.000000	-1589.000000	1565.826172	5650.189941
564.000000	-1589.000000	1564.807617	5577.826660
564.000000	-1589.000000	1563.788086	5637.979492
564.000000	-1589.000000	1562.768555	5700.559082
564.000000	-1589.000000	1561.750000	5542.396973
564.000000	-1589.000000	1560.729492	5651.555176
564.000000	-1589.000000	1559.709961	5481.212891
564.000000	-1589.000000	1558.690430	5568.279785
564.000000	-1589.000000	1557.669922	5880.737793
564.000000	-1589.000000	1556.649414	5793.747559
564.000000	-1589.000000	1555.628906	5897.836914
564.000000	-1589.000000	1554.607422	5690.890625
564.000000	-1589.000000	1553.586914	5716.613281
564.000000	-1589.000000	1552.565430	5632.178223
564.000000	-1589.000000	1551.543945	5785.156250
564.000000	-1589.000000	1550.521484	5774.141602
564.000000	-1589.000000	1549.500000	5763.131836
564.000000	-1589.000000	1548.477539	5717.887207
564.000000	-1589.000000	1547.455078	5706.893066
564.000000	-1589.000000	1546.432617	5686.125000
564.000000	-1589.000000	1545.409180	5748.464355
564.000000	-1589.000000	1544.386719	5779.010254
564.000000	-1589.000000	1543.363281	5750.910156
564.000000	-1589.000000	1542.339844	5769.229492
564.000000	-1589.000000	1541.315430	5855.916504
564.000000	-1589.000000	1540.291992	5659.354492
564.000000	-1589.000000	1539.267578	5814.375000
564.000000	-1589.000000	1538.243164	5764.331543
564.000000	-1589.000000	1537.218750	5685.029785
564.000000	-1589.000000	1536.193359	5674.064941
564.000000	-1589.000000	1535.168945	5748.465332
564.000000	-1589.000000	1534.143555	5854.533203
564.000000	-1589.000000	1533.118164	5738.710449
564.000000	-1589.000000	1532.091797	5771.614258
564.000000	-1589.000000	1531.066406	5831.308594
564.000000	-1589.000000	1530.040039	5795.961914
564.000000	-1589.000000	1529.013672	5743.579102
564.000000	-1589.000000	1527.987305	5776.452637
564.000000	-1589.000000	1526.959961	5792.268555
564.000000	-1589.000000	1525.933594	5871.367676
564.000000	-1589.000000	1524.906250	5736.265625
564.000000	-1589.000000	1523.878906	5788.576660
564.000000	-1589.000000	1522.850586	5809.240723
564.000000	-1589.000000	1521.823242	5932.046387
564.000000	-1589.000000	1520.794922	5889.447754
564.000000	-1589.000000	1519.766602	5798.244141
564.000000	-1589.000000	1518.738281	5779.997070
564.000000	-1589.000000	1517.708984	5725.306152
564.000000	-1589.000000	1516.680664	6008.349609
564.000000	-1589.000000	1515.651367	5815.176270
564.000000	-1589.000000	1514.622070	5753.226074
564.000000	-1589.000000	1513.591797	5790.851074
564.000000	-1589.000000	1512.562500	5884.292480
564.000000	-1589.000000	1511.532227	5912.165039
564.000000	-1589.000000	1510.501953	5852.671875
564.000000	-1589.000000	1509.471680	5781.073730
564.000000	-1589.000000	1508.440430	5869.585449
564.000000	-1589.000000	1507.409180	5861.062012
564.000000	-1589.000000	1506.378906	5823.448730
564.000000	-1589.000000	1505.346680	5885.230957
564.000000	-1589.000000	1504.315430	5939.716309
564.000000	-1589.000000	1503.283203	5848.805664
564.000000	-1589.000000	1502.251953	5900.852539
564.000000	-1589.000000	1501.219727	5911.705566
564.000000	-1589.000000	1500.186523	5983.086914
564.000000	-1589.000000	1499.154297	6018.125000
564.000000	-1589.000000	1498.121094	6087.032227
564.000000	-1589.000000	1497.087891	6017.982422
564.000000	-1589.000000	1496.054688	5992.507813
564.000000	-1589.000000	1495.021484	6063.793945
564.000000	-1589.000000	1493.987305	6091.520996
564.000000	-1589.000000	1492.953125	6102.312012
564.000000	-1589.000000	1491.918945	6156.607422
564.000000	-1589.000000	1490.884766	6247.129395
564.000000	-1589.000000	1489.849609	6224.052734
564.000000	-1589.000000	1488.814453	6080.202637
564.000000	-1589.000000	1487.779297	6202.079102
564.000000	-1589.000000	1486.744141	6130.732910
564.000000	-1589.000000	1485.708984	6230.818359
564.000000	-1589.000000	1484.672852	6260.866699
564.000000	-1589.000000	1483.636719	6170.247559
564.000000	-1589.000000	1482.600586	6374.000000
564.000000	-1589.000000	1481.564453	6314.751465
564.000000	-1589.000000	1480.527344	6337.519531
564.000000	-1589.000000	1479.490234	6420.553711
564.000000	-1589.000000	1478.453125	6397.489258
564.000000	-1589.000000	1477.416016	6415.403809
564.000000	-1589.000000	1476.378906	6534.508789
564.000000	-1589.000000	1475.340820	6513.842773
564.000000	-1589.000000	1474.302734	6601.564941
564.000000	-1589.000000	1473.264648	6783.158691
564.000000	-1589.000000	1472.226563	6704.673340
564.000000	-1589.000000	1471.187500	6683.986328
564.000000	-1589.000000	1470.148438	6711.435547
564.000000	-1589.000000	1469.109375	6888.037598
564.000000	-1589.000000	1468.070313	6913.025391
564.000000	-1589.000000	1467.030273	7031.791016
564.000000	-1589.000000	1465.991211	7085.588379
564.000000	-1589.000000	1464.951172	6990.325195
564.000000	-1589.000000	1463.910156	7108.997070
564.000000	-1589.000000	1462.870117	7097.866211
564.000000	-1589.000000	1461.829102	7146.796875
564.000000	-1589.000000	1460.788086	7219.723633
564.000000	-1589.000000	1459.747070	7119.728516
564.000000	-1589.000000	1458.706055	6998.168945
564.000000	-1589.000000	1457.664063	7224.693848
564.000000	-1589.000000	1456.623047	7316.737305
564.000000	-1589.000000	1455.581055	7370.354004
564.000000	-1589.000000	1454.538086	7359.182129
564.000000	-1589.000000	1453.496094	7235.300293
564.000000	-1589.000000	1452.453125	7317.669922
564.000000	-1589.000000	1451.410156	7304.117676
564.000000	-1589.000000	1450.367188	7386.436523
564.000000	-1589.000000	1449.324219	7250.671875
564.000000	-1589.000000	1448.280273	7335.360840
564.000000	-1589.000000	1447.236328	7333.790039
564.000000	-1589.000000	1446.192383	7157.414551
564.000000	-1589.000000	1445.148438	7175.033691
564.000000	-1589.000000	1444.103516	7202.218750
564.000000	-1589.000000	1443.059570	7210.247559
564.000000	-1589.000000	1442.014648	7086.683105
564.000000	-1589.000000	1440.968750	7082.771484
564.000000	-1589.000000	1439.923828	7057.337891
564.000000	-1589.000000	1438.877930	6921.929199
564.000000	-1589.000000	1437.832031	7104.511719
564.000000	-1589.000000	1436.786133	7036.068359
564.000000	-1589.000000	1435.740234	6872.076172
564.000000	-1589.000000	1434.693359	6970.937012
564.000000	-1589.000000	1433.646484	6904.953613
564.000000	-1589.000000	1432.599609	6881.979980
564.000000	-1589.000000	1431.552734	6880.502930
564.000000	-1589.000000	1430.504883	7017.465332
564.000000	-1589.000000	1429.458008	6937.208008
564.000000	-1589.000000	1428.410156	6823.582031
564.000000	-1589.000000	1427.361328	6922.301270
564.000000	-1589.000000	1426.313477	6923.199219
564.000000	-1589.000000	1425.264648	6928.864258
564.000000	-1589.000000	1424.215820	6836.790039
564.000000	-1589.000000	1423.166992	6913.969727
564.000000	-1589.000000	1422.118164	6905.334961
564.000000	-1589.000000	1421.068359	6894.320801
564.000000	-1589.000000	1420.018555	6819.003418
564.000000	-1589.000000	1418.968750	7103.287109
564.000000	-1589.000000	1417.918945	7089.855469
564.000000	-1589.000000	1416.869141	6950.276367
564.000000	-1589.000000	1415.818359	6832.174316
564.000000	-1589.000000	1414.767578	6902.080078
564.000000	-1589.000000	1413.716797	7138.463379
564.000000	-1589.000000	1412.665039	6965.697266
564.000000	-1589.000000	1411.613281	6954.686523
564.000000	-1589.000000	1410.562500	6946.057129
564.000000	-1589.000000	1409.509766	7044.379883
564.000000	-1589.000000	1408.458008	7107.017578
564.000000	-1589.000000	1407.405273	7019.963379
564.000000	-1589.000000	1406.353516	7008.949707
564.000000	-1589.000000	1405.300781	7240.148926
564.000000	-1589.000000	1404.247070	7288.443848
564.000000	-1589.000000	1403.194336	7303.486816
564.000000	-1589.000000	1402.140625	7249.703613
564.000000	-1589.000000	1401.086914	7065.453125
564.000000	-1589.000000	1400.033203	7004.627441
564.000000	-1589.000000	1398.978516	7041.060059
564.000000	-1589.000000	1397.923828	6954.183594
564.000000	-1589.000000	1396.870117	7090.170898
564.000000	-1589.000000	1395.814453	7017.540039
564.000000	-1589.000000	1394.759766	7165.301270
564.000000	-1589.000000	1393.704102	7097.422363
564.000000	-1589.000000	1392.648438	6906.412109
564.000000	-1589.000000	1391.592773	6949.910156
564.000000	-1589.000000	1390.537109	7017.063477
564.000000	-1589.000000	1389.480469	6878.264648
564.000000	-1589.000000	1388.424805	6943.036621
564.000000	-1589.000000	1387.368164	7081.122559
564.000000	-1589.000000	1386.310547	6984.975098
564.000000	-1589.000000	1385.253906	7184.478027
564.000000	-1589.000000	1384.196289	7152.186035
564.000000	-1589.000000	1383.138672	7022.990234
564.000000	-1589.000000	1382.081055	7066.372559
564.000000	-1589.000000	1381.022461	7064.842285
564.000000	-1589.000000	1379.964844	7060.949707
564.000000	-1589.000000	1378.906250	7080.675781
564.000000	-1589.000000	1377.847656	6975.244629
564.000000	-1589.000000	1376.788086	6891.105469
564.000000	-1589.000000	1375.729492	7064.270996
564.000000	-1589.000000	1374.669922	7048.580566
564.000000	-1589.000000	1373.610352	7030.537109
564.000000	-1589.000000	1372.549805	7003.065918
564.000000	-1589.000000	1371.490234	6916.650391
564.000000	-1589.000000	1370.429688	7058.969238
564.000000	-1589.000000	1369.369141	6906.576660
564.000000	-1589.000000	1368.308594	7133.675293
564.000000	-1589.000000	1367.247070	7113.276367
564.000000	-1589.000000	1366.185547	7017.504883
564.000000	-1589.000000	1365.124023	6973.587402
564.000000	-1589.000000	1364.062500	6957.944336
564.000000	-1589.000000	1363.000977	6904.641113
564.000000	-1589.000000	1361.938477	6919.615234
564.000000	-1589.000000	1360.875977	7092.239746
564.000000	-1589.000000	1359.813477	6966.009766
564.000000	-1589.000000	1358.750977	7018.591797
564.000000	-1589.000000	1357.687500	7089.962891
564.000000	-1589.000000	1356.624023	7013.186035
564.000000	-1589.000000	1355.560547	7046.917480
564.000000	-1589.000000	1354.497070	7035.982422
564.000000	-1589.000000	1353.432617	6940.469238
564.000000	-1589.000000	1352.368164	7197.347656
564.000000	-1589.000000	1351.303711	6965.626953
564.000000	-1589.000000	1350.239258	7135.511230
564.000000	-1589.000000	1349.173828	7098.743652
564.000000	-1589.000000	1348.108398	7205.155273
564.000000	-1589.000000	1347.042969	7212.969238
564.000000	-1589.000000	1345.977539	7117.558594
564.000000	-1589.000000	1344.912109	7247.348633
564.000000	-1589.000000	1343.845703	7252.801270
564.000000	-1589.000000	1342.779297	7216.051758
564.000000	-1589.000000	1341.712891	7146.503418
564.000000	-1589.000000	1340.645508	7128.538574
564.000000	-1589.000000	1339.579102	7101.209473
564.000000	-1589.000000	1338.511719	7228.486816
564.000000	-1589.000000	1337.444336	7301.845215
564.000000	-1589.000000	1336.375977	7218.302246
564.000000	-1589.000000	1335.308594	7172.248047
564.000000	-1589.000000	1334.240234	7135.574707
564.000000	-1589.000000	1333.171875	7293.118652
564.000000	-1589.000000	1332.102539	7242.397949
564.000000	-1589.000000	1331.034180	7310.975098
564.000000	-1589.000000	1329.964844	7190.123047
564.000000	-1589.000000	1328.895508	7321.799316
564.000000	-1589.000000	1327.825195	7275.788086
564.000000	-1589.000000	1326.755859	7260.172852
564.000000	-1589.000000	1325.685547	7253.909180
564.000000	-1589.000000	1324.615234	7217.283203
564.000000	-1589.000000	1323.544922	7362.816406
564.000000	-1589.000000	1322.473633	7120.730957
564.000000	-1589.000000	1321.403320	7161.183105
564.000000	-1589.000000	1320.332031	7084.934570
564.000000	-1589.000000	1319.259766	7438.014648
564.000000	-1589.000000	1318.188477	7235.776367
564.000000	-1589.000000	1317.116211	7276.164551
564.000000	-1589.000000	1316.043945	7204.618164
564.000000	-1589.000000	1314.971680	7389.520996
564.000000	-1589.000000	1313.898438	7180.476074
564.000000	-1589.000000	1312.826172	7435.203125
564.000000	-1589.000000	1311.752930	7272.829102
564.000000	-1589.000000	1310.679688	7226.977539
564.000000	-1589.000000	1309.605469	7423.310547
564.000000	-1589.000000	1308.532227	7505.484863
564.000000	-1589.000000	1307.458008	7378.147461
564.000000	-1589.000000	1306.383789	7374.195313
564.000000	-1589.000000	1305.308594	7321.388672
564.000000	-1589.000000	1304.234375	7463.984375
564.000000	-1589.000000	1303.159180	7273.978027
564.000000	-1589.000000	1302.083984	7451.393555
564.000000	-1589.000000	1301.007813	7228.930664
564.000000	-1589.000000	1299.932617	7401.628418
564.000000	-1589.000000	1298.856445	7448.786133
564.000000	-1589.000000	1297.780273	7368.164063
564.000000	-1589.000000	1296.703125	7338.668945
564.000000	-1589.000000	1295.626953	7411.347168
564.000000	-1589.000000	1294.549805	7402.745605
564.000000	-1589.000000	1293.472656	7480.018066
564.000000	-1589.000000	1292.395508	7466.762695
564.000000	-1589.000000	1291.317383	7488.309570
564.000000	-1589.000000	1290.239258	7570.147949
564.000000	-1589.000000	1289.161133	7399.202637
564.000000	-1589.000000	1288.083008	7522.750977
564.000000	-1589.000000	1287.003906	7539.627441
564.000000	-1589.000000	1285.925781	7526.372070
564.000000	-1589.000000	1284.846680	7712.358887
564.000000	-1589.000000	1283.766602	7585.575195
564.000000	-1589.000000	1282.687500	7583.894043
564.000000	-1589.000000	1281.607422	7818.360840
564.000000	-1589.000000	1280.527344	7742.557617
564.000000	-1589.000000	1279.447266	7588.106445
564.000000	-1589.000000	1278.366211	7803.904785
564.000000	-1589.000000	1277.286133	7739.718262
564.000000	-1589.000000	1276.205078	7677.871582
564.000000	-1589.000000	1275.124023	7764.026367
564.000000	-1589.000000	1274.041992	7838.583984
564.000000	-1589.000000	1272.959961	7765.198730
564.000000	-1589.000000	1271.877930	7837.410645
564.000000	-1589.000000	1270.795898	7824.117676
564.000000	-1589.000000	1269.713867	7810.829590
564.000000	-1589.000000	1268.630859	7878.362305
564.000000	-1589.000000	1267.547852	7915.853516
564.000000	-1589.000000	1266.464844	7757.147949
564.000000	-1589.000000	1265.381836	7845.412109
564.000000	-1589.000000	1264.297852	7940.556641
564.000000	-1589.000000	1263.213867	7913.416504
564.000000	-1589.000000	1262.129883	7881.675293
564.000000	-1589.000000	1261.044922	7822.282715
564.000000	-1589.000000	1259.960938	7889.685059
564.000000	-1589.000000	1258.875977	8019.274902
564.000000	-1589.000000	1257.791016	7851.606445
564.000000	-1589.000000	1256.705078	8006.481934
564.000000	-1589.000000	1255.619141	8062.265137
564.000000	-1589.000000	1254.534180	8044.348145
564.000000	-1589.000000	1253.447266	8118.510254
564.000000	-1589.000000	1252.361328	8146.612793
564.000000	-1589.000000	1251.274414	8114.880859
564.000000	-1589.000000	1250.187500	8060.159668
564.000000	-1589.000000	1249.100586	8088.252930
564.000000	-1589.000000	1248.013672	8134.727051
564.000000	-1589.000000	1246.925781	8107.619629
564.000000	-1589.000000	1245.837891	8080.523926
564.000000	-1589.000000	1244.750000	8025.866211
564.000000	-1589.000000	1243.662109	8132.035645
564.000000	-1589.000000	1242.573242	8109.542480
564.000000	-1589.000000	1241.484375	8096.243164
564.000000	-1589.000000	1240.395508	8092.131836
564.000000	-1589.000000	1239.306641	8021.461914
564.000000	-1589.000000	1238.216797	7948.528809
564.000000	-1589.000000	1237.126953	8079.801758
564.000000	-1589.000000	1236.037109	7983.950195
564.000000	-1589.000000	1234.946289	7963.811523
564.000000	-1589.000000	1233.856445	7973.484375
564.000000	-1589.000000	1232.765625	7870.842285
564.000000	-1589.000000	1231.674805	7855.323242
564.000000	-1589.000000	1230.583008	7784.825684
564.000000	-1589.000000	1229.492188	7865.531250
564.000000	-1589.000000	1228.400391	8099.627930
564.000000	-1589.000000	1227.307617	7937.541992
564.000000	-1589.000000	1226.215820	7809.861816
564.000000	-1589.000000	1225.123047	7810.390625
564.000000	-1589.000000	1224.030273	7758.295898
564.000000	-1589.000000	1222.937500	7735.959961
564.000000	-1589.000000	1221.844727	7773.091797
564.000000	-1589.000000	1220.750977	7554.133301
564.000000	-1589.000000	1219.657227	7602.716797
564.000000	-1589.000000	1218.563477	7742.690430
564.000000	-1589.000000	1217.469727	7686.105957
564.000000	-1589.000000	1216.375000	7588.428711
564.000000	-1589.000000	1215.280273	7760.280762
564.000000	-1589.000000	1214.185547	7801.908203
564.000000	-1589.000000	1213.089844	7704.268066
564.000000	-1589.000000	1211.995117	7912.489746
564.000000	-1589.000000	1210.899414	7805.740234
564.000000	-1589.000000	1209.802734	7803.972656
564.000000	-1589.000000	1208.707031	7733.784668
564.000000	-1589.000000	1207.610352	7802.717285
564.000000	-1589.000000	1206.513672	7780.431641
564.000000	-1589.000000	1205.416992	7678.385742
564.000000	-1589.000000	1204.320313	7601.450195
564.000000	-1589.000000	1203.222656	7722.742676
564.000000	-1589.000000	1202.125000	7679.993164
564.000000	-1589.000000	1201.027344	7883.185059
564.000000	-1589.000000	1199.928711	7924.648438
564.000000	-1589.000000	1198.830078	7765.802246
564.000000	-1589.000000	1197.731445	7627.506348
564.000000	-1589.000000	1196.632813	7605.296875
564.000000	-1589.000000	1195.533203	7701.369629
564.000000	-1589.000000	1194.434570	7676.877441
564.000000	-1589.000000	1193.334961	7795.622559
564.000000	-1589.000000	1192.234375	7641.561523
564.000000	-1589.000000	1191.134766	7810.250977
564.000000	-1589.000000	1190.034180	7653.982910
564.000000	-1589.000000	1188.933594	7640.881348
564.000000	-1589.000000	1187.832031	7652.764160
564.000000	-1589.000000	1186.731445	7773.616699
564.000000	-1589.000000	1185.629883	7864.904785
564.000000	-1589.000000	1184.528320	7835.877930
564.000000	-1589.000000	1183.426758	7691.155273
564.000000	-1589.000000	1182.324219	7832.298828
564.000000	-1589.000000	1181.221680	7918.950684
564.000000	-1589.000000	1180.119141	7728.960938
564.000000	-1589.000000	1179.016602	7908.529297
564.000000	-1589.000000	1177.913086	7847.799316
564.000000	-1589.000000	1176.809570	7850.534668
564.000000	-1589.000000	1175.706055	8057.130859
564.000000	-1589.000000	1174.601563	7937.524902
564.000000	-1589.000000	1173.498047	7874.575195
564.000000	-1589.000000	1172.393555	7813.916504
564.000000	-1589.000000	1171.289063	7952.435547
564.000000	-1589.000000	1170.183594	7959.661621
564.000000	-1589.000000	1169.078125	7853.781738
564.000000	-1589.000000	1167.972656	7933.393066
564.000000	-1589.000000	1166.867188	7949.659668
564.000000	-1589.000000	1165.761719	7932.009766
564.000000	-1589.000000	1164.655273	7966.346191
564.000000	-1589.000000	1163.548828	7957.736816
564.000000	-1589.000000	1162.442383	7863.291016
564.000000	-1589.000000	1161.334961	7960.851074
564.000000	-1589.000000	1160.227539	7979.339844
564.000000	-1589.000000	1159.120117	8027.164551
564.000000	-1589.000000	1158.012695	7849.282227
564.000000	-1589.000000	1156.904297	7926.444824
564.000000	-1589.000000	1155.795898	7990.035645
564.000000	-1589.000000	1154.687500	7902.492676
564.000000	-1589.000000	1153.579102	8044.974609
564.000000	-1589.000000	1152.469727	7883.066895
564.000000	-1589.000000	1151.360352	7957.873535
564.000000	-1589.000000	1150.250977	8016.872070
564.000000	-1589.000000	1149.141602	8015.019531
564.000000	-1589.000000	1148.031250	7972.628418
564.000000	-1589.000000	1146.920898	7934.758789
564.000000	-1589.000000	1145.810547	8110.761230
564.000000	-1589.000000	1144.699219	7998.605469
564.000000	-1589.000000	1143.588867	8014.754395
564.000000	-1589.000000	1142.477539	8035.394043
564.000000	-1589.000000	1141.365234	7963.812500
564.000000	-1589.000000	1140.253906	7867.529785
564.000000	-1589.000000	1139.141602	7946.632813
564.000000	-1589.000000	1138.029297	7868.375977
564.000000	-1589.000000	1136.916992	7902.501465
564.000000	-1589.000000	1135.803711	7974.798828
564.000000	-1589.000000	1134.690430	7883.111328
564.000000	-1589.000000	1133.577148	8110.308594
564.000000	-1589.000000	1132.463867	8103.934082
564.000000	-1589.000000	1131.349609	8196.311523
564.000000	-1589.000000	1130.235352	8131.578613
564.000000	-1589.000000	1129.121094	8013.035645
564.000000	-1589.000000	1128.006836	8221.991211
564.000000	-1589.000000	1126.891602	8058.634277
564.000000	-1589.000000	1125.776367	8081.416016
564.000000	-1589.000000	1124.661133	8256.587891
564.000000	-1589.000000	1123.544922	8046.279785
564.000000	-1589.000000	1122.428711	8151.930176
564.000000	-1589.000000	1121.312500	8194.821289
564.000000	-1589.000000	1120.196289	7951.083984
564.000000	-1589.000000	1119.079102	8190.995117
564.000000	-1589.000000	1117.962891	8287.556641
564.000000	-1589.000000	1116.844727	8108.853516
564.000000	-1589.000000	1115.727539	8225.519531
564.000000	-1589.000000	1114.609375	8163.210449
564.000000	-1589.000000	1113.491211	8324.526367
564.000000	-1589.000000	1112.373047	8242.101563
564.000000	-1589.000000	1111.254883	8307.218750
564.000000	-1589.000000	1110.135742	8253.881836
564.000000	-1589.000000	1109.016602	8455.230469
564.000000	-1589.000000	1107.897461	8379.546875
564.000000	-1589.000000	1106.777344	8312.829102
564.000000	-1589.000000	1105.658203	8391.241211
564.000000	-1589.000000	1104.537109	8411.589844
564.000000	-1589.000000	1103.416992	8505.557617
564.000000	-1589.000000	1102.296875	8599.481445
564.000000	-1589.000000	1101.175781	8572.927734
564.000000	-1589.000000	1100.054688	8533.006836
564.000000	-1589.000000	1098.932617	8488.645508
564.000000	-1589.000000	1097.810547	8513.391602
564.000000	-1589.000000	1096.688477	8364.332031
564.000000	-1589.000000	1095.566406	8594.030273
564.000000	-1589.000000	1094.444336	8649.909180
564.000000	-1589.000000	1093.321289	8828.219727
564.000000	-1589.000000	1092.198242	8783.843750
564.000000	-1589.000000	1091.075195	8799.575195
564.000000	-1589.000000	1089.951172	8793.047852
564.000000	-1589.000000	1088.827148	9040.108398
564.000000	-1589.000000	1087.703125	9017.958008
564.000000	-1589.000000	1086.579102	8989.145508
564.000000	-1589.000000	1085.454102	8982.575195
564.000000	-1589.000000	1084.329102	9027.119141
564.000000	-1589.000000	1083.204102	9227.166992
564.000000	-1589.000000	1082.078125	9418.234375
564.000000	-1589.000000	1080.953125	9333.835938
564.000000	-1589.000000	1079.827148	9533.665039
564.000000	-1589.000000	1078.700195	9702.323242
564.000000	-1589.000000	1077.574219	9653.418945
564.000000	-1589.000000	1076.447266	9888.524414
564.000000	-1589.000000	1075.320313	9737.563477
564.000000	-1589.000000	1074.192383	9948.140625
564.000000	-1589.000000	1073.065430	9857.094727
564.000000	-1589.000000	1071.937500	9930.115234
564.000000	-1589.000000	1070.808594	9792.577148
564.000000	-1589.000000	1069.680664	10045.029297
564.000000	-1589.000000	1068.551758	9971.759766
564.000000	-1589.000000	1067.422852	9681.509766
564.000000	-1589.000000	1066.293945	9685.845703
564.000000	-1589.000000	1065.164063	9696.818359
564.000000	-1589.000000	1064.034180	9665.739258
564.000000	-1589.000000	1062.904297	9508.572266
564.000000	-1589.000000	1061.774414	9470.915039
564.000000	-1589.000000	1060.643555	9123.696289
564.000000	-1589.000000	1059.512695	9251.951172
564.000000	-1589.000000	1058.381836	9209.957031
564.000000	-1589.000000	1057.250000	9026.562500
564.000000	-1589.000000	1056.118164	9097.306641
564.000000	-1589.000000	1054.986328	9090.712891
564.000000	-1589.000000	1053.854492	9327.012695
564.000000	-1589.000000	1052.721680	9040.002930
564.000000	-1589.000000	1051.588867	9057.701172
564.000000	-1589.000000	1050.456055	9068.769531
564.000000	-1589.000000	1049.323242	9097.479492
564.000000	-1589.000000	1048.189453	9018.106445
564.000000	-1589.000000	1047.055664	9095.320313
564.000000	-1589.000000	1045.921875	9040.231445
564.000000	-1589.000000	1044.787109	8910.236328
564.000000	-1589.000000	1043.652344	9029.278320
564.000000	-1589.000000	1042.517578	9161.479492
564.000000	-1589.000000	1041.382813	9174.692383
564.000000	-1589.000000	1040.247070	9161.476563
564.000000	-1589.000000	1039.111328	9214.301758
564.000000	-1589.000000	1037.975586	9124.055664
564.000000	-1589.000000	1036.838867	9295.670898
564.000000	-1589.000000	1035.702148	9519.992188
564.000000	-1589.000000	1034.565430	9544.085938
564.000000	-1589.000000	1033.428711	9603.343750
564.000000	-1589.000000	1032.291016	9664.768555
564.000000	-1589.000000	1031.153320	9480.041992
564.000000	-1589.000000	1030.015625	9378.888672
564.000000	-1589.000000	1028.876953	9442.515625
564.000000	-1589.000000	1027.738281	9326.044922
564.000000	-1589.000000	1026.599609	9290.858398
564.000000	-1589.000000	1025.460938	9341.287109
564.000000	-1589.000000	1024.321289	9202.977539
564.000000	-1589.000000	1023.181641	9209.523438
564.000000	-1589.000000	1022.041992	9075.696289
564.000000	-1589.000000	1020.902344	9275.227539
564.000000	-1589.000000	1019.761719	9128.292969
564.000000	-1589.000000	1018.621094	9222.510742
564.000000	-1589.000000	1017.480469	9242.183594
564.000000	-1589.000000	1016.338867	9106.312500
564.000000	-1589.000000	1015.197266	9237.693359
564.000000	-1589.000000	1014.055664	9086.559570
564.000000	-1589.000000	1012.913086	9058.082031
564.000000	-1589.000000	1011.771484	9053.689453
564.000000	-1589.000000	1010.627930	9003.351563
564.000000	-1589.000000	1009.485352	8972.722656
564.000000	-1589.000000	1008.342773	9342.303711
564.000000	-1589.000000	1007.199219	9241.641602
564.000000	-1589.000000	1006.054688	9501.683594
564.000000	-1589.000000	1004.911133	9700.410156
564.000000	-1589.000000	1003.766602	9929.625000
564.000000	-1589.000000	1002.622070	9931.568359
564.000000	-1589.000000	1001.477539	9752.264648
564.000000	-1589.000000	1000.332031	9439.875977
564.000000	-1589.000000	999.186523	9300.063477
564.000000	-1589.000000	998.041016	9374.160156
564.000000	-1589.000000	996.895508	9062.087891
564.000000	-1589.000000	995.749023	9160.194336
564.000000	-1589.000000	994.602539	9153.588867
564.000000	-1589.000000	993.455078	9253.802734
564.000000	-1589.000000	992.308594	9075.001953
564.000000	-1589.000000	991.161133	9170.824219
564.000000	-1589.000000	990.013672	9209.960938
564.000000	-1589.000000	988.865234	9262.144531
564.000000	-1589.000000	987.716797	9131.410156
564.000000	-1589.000000	986.568359	9405.609375
564.000000	-1589.000000	985.419922	9405.472656
564.000000	-1589.000000	984.270508	9307.429688
564.000000	-1589.000000	983.121094	9316.014648
564.000000	-1589.000000	981.971680	9576.843750
564.000000	-1589.000000	980.821289	9446.215820
564.000000	-1589.000000	979.671875	9554.736328
564.000000	-1589.000000	978.521484	9513.266602
564.000000	-1589.000000	977.370117	9715.127930
564.000000	-1589.000000	976.218750	10077.608398
564.000000	-1589.000000	975.067383	10346.540039
564.000000	-1589.000000	973.916016	10849.786133
564.000000	-1589.000000	972.764648	11265.969727
564.000000	-1589.000000	971.612305	11814.299805
564.000000	-1589.000000	970.459961	12340.665039
564.000000	-1589.000000	969.306641	12983.875977
564.000000	-1589.000000	968.153320	13828.403320
564.000000	-1589.000000	967.000000	14865.426758
564.000000	-1589.000000	965.846680	15845.589844
564.000000	-1589.000000	964.692383	16738.603516
564.000000	-1589.000000	963.539063	17849.933594
564.000000	-1589.000000	962.383789	18692.195313
564.000000	-1589.000000	961.229492	19250.429688
564.000000	-1589.000000	960.074219	19459.919922
564.000000	-1589.000000	958.918945	19305.777344
564.000000	-1589.000000	957.763672	18998.111328
564.000000	-1589.000000	956.607422	18361.857422
564.000000	-1589.000000	955.451172	17418.880859
564.000000	-1589.000000	954.294922	16433.134766
564.000000	-1589.000000	953.137695	15638.060547
564.000000	-1589.000000	951.980469	14810.969727
564.000000	-1589.000000	950.823242	14418.461914
564.000000	-1589.000000	949.666016	13725.973633
564.000000	-1589.000000	948.507813	13327.450195
564.000000	-1589.000000	947.349609	12661.476563
564.000000	-1589.000000	946.191406	12358.361328
564.000000	-1589.000000	945.032227	11964.787109
564.000000	-1589.000000	943.873047	11618.857422
564.000000	-1589.000000	942.713867	11327.005859
564.000000	-1589.000000	941.553711	11173.265625
564.000000	-1589.000000	940.394531	10791.149414
564.000000	-1589.000000	939.233398	10633.307617
564.000000	-1589.000000	938.073242	10309.674805
564.000000	-1589.000000	936.912109	10242.480469
564.000000	-1589.000000	935.750977	10024.603516
564.000000	-1589.000000	934.589844	10183.524414
564.000000	-1589.000000	933.427734	9980.832031
564.000000	-1589.000000	932.265625	9799.753906
564.000000	-1589.000000	931.103516	9605.860352
564.000000	-1589.000000	929.941406	9661.501953
564.000000	-1589.000000	928.778320	9684.867188
564.000000	-1589.000000	927.615234	9577.113281
564.000000	-1589.000000	926.451172	9566.104492
564.000000	-1589.000000	925.288086	9271.540039
564.000000	-1589.000000	924.124023	9602.084961
564.000000	-1589.000000	922.958984	9417.158203
564.000000	-1589.000000	921.794922	9421.219727
564.000000	-1589.000000	920.629883	9369.481445
564.000000	-1589.000000	919.464844	9330.639648
564.000000	-1589.000000	918.298828	9266.077148
564.000000	-1589.000000	917.132813	9253.010742
564.000000	-1589.000000	915.966797	9203.503906
564.000000	-1589.000000	914.800781	9323.340820
564.000000	-1589.000000	913.633789	9273.837891
564.000000	-1589.000000	912.466797	9252.206055
564.000000	-1589.000000	911.299805	9207.026367
564.000000	-1589.000000	910.131836	9241.088867
564.000000	-1589.000000	908.963867	9138.134766
564.000000	-1589.000000	907.795898	9037.372070
564.000000	-1589.000000	906.626953	9208.374023
564.000000	-1589.000000	905.458008	9158.975586
564.000000	-1589.000000	904.289063	9145.953125
564.000000	-1589.000000	903.120117	9094.454102
564.000000	-1589.000000	901.950195	9010.919922
564.000000	-1589.000000	900.780273	9194.523438
564.000000	-1589.000000	899.610352	9164.408203
564.000000	-1589.000000	898.439453	9029.658203
564.000000	-1589.000000	897.268555	9117.030273
564.000000	-1589.000000	896.097656	8988.761719
564.000000	-1589.000000	894.925781	9229.746094
564.000000	-1589.000000	893.753906	9148.448242
564.000000	-1589.000000	892.582031	9190.901367
564.000000	-1589.000000	891.409180	9265.316406
564.000000	-1589.000000	890.237305	9117.978516
564.000000	-1589.000000	889.063477	9207.290039
564.000000	-1589.000000	887.890625	9268.854492
564.000000	-1589.000000	886.716797	9228.133789
564.000000	-1589.000000	885.542969	9219.377930
564.000000	-1589.000000	884.369141	9253.208008
564.000000	-1589.000000	883.194336	9284.889648
564.000000	-1589.000000	882.019531	9448.491211
564.000000	-1589.000000	880.844727	9243.952148
564.000000	-1589.000000	879.668945	9269.225586
564.000000	-1589.000000	878.493164	9413.562500
564.000000	-1589.000000	877.317383	9498.298828
564.000000	-1589.000000	876.141602	9285.448242
564.000000	-1589.000000	874.964844	9385.043945
564.000000	-1589.000000	873.788086	9242.426758
564.000000	-1589.000000	872.610352	9335.608398
564.000000	-1589.000000	871.432617	9190.950195
564.000000	-1589.000000	870.254883	9343.525391
564.000000	-1589.000000	869.077148	9290.183594
564.000000	-1589.000000	867.898438	9292.025391
564.000000	-1589.000000	866.719727	9228.116211
564.000000	-1589.000000	865.541016	9155.756836
564.000000	-1589.000000	864.361328	9284.815430
564.000000	-1589.000000	863.181641	9193.402344
564.000000	-1589.000000	862.001953	9280.005859
564.000000	-1589.000000	860.821289	9239.473633
564.000000	-1589.000000	859.640625	9506.015625
564.000000	-1589.000000	858.459961	9469.675781
564.000000	-1589.000000	857.279297	9420.653320
564.000000	-1589.000000	856.097656	9515.541016
564.000000	-1589.000000	854.916016	9386.142578
564.000000	-1589.000000	853.733398	9595.189453
564.000000	-1589.000000	852.550781	9590.579102
564.000000	-1589.000000	851.368164	9522.555664
564.000000	-1589.000000	850.185547	9496.830078
564.000000	-1589.000000	849.001953	9443.651367
564.000000	-1589.000000	847.818359	9458.086914
564.000000	-1589.000000	846.634766	9345.818359
564.000000	-1589.000000	845.450195	9480.595703
564.000000	-1589.000000	844.265625	9387.370117
564.000000	-1589.000000	843.081055	9264.652344
564.000000	-1589.000000	841.895508	9310.746094
564.000000	-1589.000000	840.709961	9403.208008
564.000000	-1589.000000	839.524414	9518.810547
564.000000	-1589.000000	838.337891	9364.563477
564.000000	-1589.000000	837.151367	9324.181641
564.000000	-1589.000000	835.964844	9374.404297
564.000000	-1589.000000	834.778320	9209.779297
564.000000	-1589.000000	833.590820	9266.318359
564.000000	-1589.000000	832.403320	9442.806641
564.000000	-1589.000000	831.214844	9293.019531
564.000000	-1589.000000	830.026367	9269.539063
564.000000	-1589.000000	828.837891	9229.243164
564.000000	-1589.000000	827.649414	9090.138672
564.000000	-1589.000000	826.459961	9190.752930
564.000000	-1589.000000	825.270508	9198.841797
564.000000	-1589.000000	824.080078	9286.764648
564.000000	-1589.000000	822.890625	9057.460938
564.000000	-1589.000000	821.700195	9120.171875
564.000000	-1589.000000	820.508789	9174.450195
564.000000	-1589.000000	819.317383	9327.343750
564.000000	-1589.000000	818.125977	9324.880859
564.000000	-1589.000000	816.934570	9374.860352
564.000000	-1589.000000	815.742188	9466.755859
564.000000	-1589.000000	814.549805	9592.147461
564.000000	-1589.000000	813.357422	9614.761719
564.000000	-1589.000000	812.164063	9599.642578
564.000000	-1589.000000	810.970703	9798.216797
564.000000	-1589.000000	809.777344	9707.654297
564.000000	-1589.000000	808.583984	9596.198242
564.000000	-1589.000000	807.389648	9380.133789
564.000000	-1589.000000	806.194336	9377.643555
564.000000	-1589.000000	805.000000	9226.606445
564.000000	-1589.000000	803.804688	9102.838867
564.000000	-1589.000000	802.609375	8972.862305
564.000000	-1589.000000	801.413086	8934.935547
564.000000	-1589.000000	800.216797	8982.716797
564.000000	-1589.000000	799.020508	8994.950195
564.000000	-1589.000000	797.823242	8846.333008
564.000000	-1589.000000	796.626953	8887.829102
564.000000	-1589.000000	795.428711	8897.985352
564.000000	-1589.000000	794.231445	8820.471680
564.000000	-1589.000000	793.033203	8939.140625
564.000000	-1589.000000	791.834961	8855.395508
564.000000	-1589.000000	790.635742	8796.719727
564.000000	-1589.000000	789.436523	8917.379883
564.000000	-1589.000000	788.237305	8777.422852
564.000000	-1589.000000	787.038086	8879.264648
564.000000	-1589.000000	785.837891	8858.136719
564.000000	-1589.000000	784.637695	8876.589844
564.000000	-1589.000000	783.436523	8892.949219
564.000000	-1589.000000	782.235352	8963.418945
564.000000	-1589.000000	781.034180	8881.933594
564.000000	-1589.000000	779.833008	8941.961914
564.000000	-1589.000000	778.630859	8893.800781
564.000000	-1589.000000	777.428711	9003.695313
564.000000	-1589.000000	776.225586	8803.786133
564.000000	-1589.000000	775.023438	8899.094727
564.000000	-1589.000000	773.819336	8826.056641
564.000000	-1589.000000	772.616211	8937.920898
564.000000	-1589.000000	771.412109	8794.303711
564.000000	-1589.000000	770.208008	9070.118164
564.000000	-1589.000000	769.003906	8903.708984
564.000000	-1589.000000	767.798828	8949.027344
564.000000	-1589.000000	766.593750	8766.142578
564.000000	-1589.000000	765.387695	8900.642578
564.000000	-1589.000000	764.181641	9043.360352
564.000000	-1589.000000	762.975586	8893.754883
564.000000	-1589.000000	761.769531	8907.922852
564.000000	-1589.000000	760.562500	8818.505859
564.000000	-1589.000000	759.355469	8799.547852
564.000000	-1589.000000	758.147461	9118.075195
564.000000	-1589.000000	756.940430	8966.572266
564.000000	-1589.000000	755.731445	8751.001953
564.000000	-1589.000000	754.523438	8916.191406
564.000000	-1589.000000	753.314453	8822.769531
564.000000	-1589.000000	752.105469	8896.872070
564.000000	-1589.000000	750.896484	8987.467773
564.000000	-1589.000000	749.686523	8869.298828
564.000000	-1589.000000	748.476563	8988.772461
564.000000	-1589.000000	747.265625	8971.865234
564.000000	-1589.000000	746.054688	8859.986328
564.000000	-1589.000000	744.843750	8768.807617
564.000000	-1589.000000	743.631836	8745.778320
564.000000	-1589.000000	742.420898	8751.641602
564.000000	-1589.000000	741.208008	8976.128906
564.000000	-1589.000000	739.996094	8792.222656
564.000000	-1589.000000	738.783203	8849.598633
564.000000	-1589.000000	737.570313	8853.359375
564.000000	-1589.000000	736.356445	8908.623047
564.000000	-1589.000000	735.142578	8770.241211
564.000000	-1589.000000	733.928711	8792.546875
564.000000	-1589.000000	732.714844	8823.073242
564.000000	-1589.000000	731.500000	8909.146484
564.000000	-1589.000000	730.284180	8826.459961
564.000000	-1589.000000	729.069336	8791.125000
564.000000	-1589.000000	727.853516	8792.822266
564.000000	-1589.000000	726.637695	8903.470703
564.000000	-1589.000000	725.420898	8952.400391
564.000000	-1589.000000	724.204102	8884.188477
