#Wave		#Intensity
1819.710938	1519.076294
1818.746094	1594.252441
1817.781250	1632.779419
1816.816406	1549.505615
1815.851563	1525.851563
1814.886719	1515.158081
1813.920898	1535.542480
1812.955078	1579.218018
1811.989258	1602.167969
1811.023438	1539.712158
1810.056641	1529.027222
1809.090820	1598.532349
1808.124023	1561.978760
1807.157227	1595.249512
1806.189453	1662.109741
1805.222656	1553.203979
1804.254883	1539.946411
1803.287109	1568.026489
1802.319336	1596.094360
1801.350586	1588.000366
1800.382813	1564.420532
1799.414063	1638.928711
1798.445313	1597.285156
1797.475586	1653.694702
1796.506836	1599.169556
1795.537109	1490.514404
1794.567383	1626.834106
1793.597656	1626.480347
1792.627930	1577.162720
1791.657227	1509.830933
1790.686523	1635.724121
1789.715820	1607.039673
1788.745117	1660.762085
1787.774414	1598.619141
1786.802734	1667.762329
1785.831055	1603.071655
1784.859375	1646.458008
1783.887695	1725.833862
1782.915039	1656.029785
1781.942383	1717.372803
1780.969727	1627.037964
1779.997070	1577.859131
1779.024414	1654.594727
1778.050781	1679.923218
1777.077148	1682.127563
1776.103516	1630.411743
1775.129883	1689.100342
1774.155273	1655.370728
1773.181641	1690.935303
1772.207031	1677.742798
1771.232422	1718.416748
1770.256836	1682.145752
1769.282227	1694.600464
1768.306641	1676.292236
1767.331055	1642.616455
1766.355469	1662.757813
1765.378906	1711.066650
1764.403320	1713.258057
1763.426758	1746.172974
1762.450195	1720.197754
1761.473633	1760.774780
1760.496094	1711.779297
1759.518555	1675.595703
1758.541016	1795.441895
1757.563477	1726.014160
1756.585938	1674.511841
1755.607422	1692.042480
1754.628906	1686.567017
1753.650391	1665.764771
1752.671875	1726.709106
1751.693359	1736.552124
1750.713867	1738.731323
1749.734375	1689.856445
1748.754883	1789.024780
1747.775391	1778.433350
1746.794922	1839.274780
1745.815430	1757.264404
1744.834961	1764.536011
1743.853516	1782.001953
1742.873047	1909.059326
1741.891602	1804.170044
1740.911133	1829.259277
1739.929688	1816.130249
1738.947266	1846.299438
1737.965820	1817.895874
1736.983398	1863.324829
1736.000977	1837.474731
1735.018555	1839.624512
1734.036133	1877.387817
1733.052734	1907.504883
1732.070313	1904.552612
1731.086914	1952.446533
1730.102539	1944.402466
1729.119141	1999.890747
1728.134766	1971.515015
1727.150391	2004.113037
1726.166016	2100.185059
1725.181641	2079.422852
1724.197266	2190.668213
1723.211914	2043.001099
1722.226563	2179.579834
1721.241211	2133.450439
1720.254883	2135.529541
1719.269531	2142.679199
1718.283203	2053.489258
1717.296875	2149.365479
1716.310547	2075.416748
1715.323242	2191.515381
1714.336914	2173.315186
1713.349609	2117.135986
1712.362305	2159.725586
1711.374023	2131.418213
1710.386719	2186.640625
1709.398438	2155.809326
1708.410156	2198.354004
1707.421875	2157.416504
1706.433594	2250.516113
1705.444336	2247.506836
1704.455078	2231.860840
1703.465820	2231.383789
1702.476563	2268.804688
1701.486328	2265.793945
1700.497070	2343.598145
1699.506836	2378.445801
1698.516602	2350.169922
1697.525391	2374.906250
1696.535156	2422.341309
1695.543945	2469.755859
1694.552734	2507.061523
1693.561523	2597.306152
1692.569336	2488.343506
1691.578125	2555.868164
1690.585938	2474.681396
1689.593750	2612.726318
1688.601563	2649.953369
1687.608398	2704.793457
1686.615234	2671.484131
1685.622070	2600.428467
1684.628906	2730.748535
1683.635742	2725.133545
1682.641602	2742.162842
1681.648438	2713.911133
1680.654297	2796.316895
1679.659180	2752.980469
1678.665039	2782.557129
1677.669922	2668.876221
1676.674805	2713.533203
1675.679688	2866.186768
1674.684570	2755.072021
1673.688477	2852.411377
1672.692383	2781.512939
1671.697266	2913.942871
1670.700195	2755.235107
1669.704102	2809.841797
1668.707031	2871.949951
1667.709961	2821.184326
1666.712891	2860.698730
1665.715820	2862.596436
1664.718750	2786.803711
1663.720703	2813.772217
1662.722656	2800.648193
1661.724609	2757.475586
1660.725586	2786.936768
1659.727539	2743.785156
1658.728516	2760.721924
1657.729492	2745.120605
1656.730469	2729.525635
1655.730469	2668.913330
1654.731445	2598.323730
1653.731445	2535.264648
1652.731445	2707.207031
1651.730469	2686.637939
1650.730469	2708.554688
1649.729492	2665.510742
1648.728516	2769.843506
1647.727539	2721.810547
1646.725586	2786.142334
1645.724609	2758.093994
1644.722656	2887.273193
1643.720703	2886.659668
1642.718750	3030.722900
1641.715820	3094.920166
1640.712891	3181.530273
1639.709961	3193.318604
1638.707031	3205.102051
1637.704102	3097.274902
1636.700195	3101.599609
1635.696289	3076.033691
1634.692383	2975.773193
1633.688477	2800.865234
1632.684570	2850.052979
1631.679688	2742.437988
1630.674805	2677.166016
1629.669922	2554.708008
1628.665039	2661.107178
1627.659180	2496.434082
1626.653320	2480.988525
1625.647461	2507.801514
1624.641602	2437.691895
1623.635742	2449.596436
1622.628906	2496.269775
1621.622070	2379.023682
1620.615234	2423.209229
1619.608398	2360.638184
1618.600586	2312.984131
1617.592773	2369.561279
1616.584961	2331.848145
1615.577148	2447.921143
1614.569336	2234.153076
1613.560547	2352.676270
1612.551758	2386.877441
1611.542969	2316.985352
1610.534180	2393.297363
1609.524414	2365.542480
1608.515625	2345.228760
1607.505859	2334.827393
1606.496094	2470.480957
1605.485352	2440.258057
1604.475586	2489.228027
1603.464844	2557.968018
1602.454102	2540.112061
1601.442383	2495.062744
1600.431641	2425.309814
1599.419922	2503.891602
1598.408203	2434.166016
1597.396484	2285.406982
1596.384766	2341.736572
1595.372070	2331.361328
1594.359375	2298.768066
1593.346680	2268.657227
1592.333984	2189.197021
1591.321289	2228.213867
1590.307617	2294.351563
1589.293945	2301.264648
1588.280273	2362.426514
1587.266602	2295.357666
1586.251953	2215.992432
1585.237305	2328.886230
1584.222656	2291.433594
1583.208008	2258.923584
1582.193359	2231.353271
1581.177734	2361.384033
1580.162109	2242.715820
1579.146484	2335.769531
1578.130859	2313.127197
1577.114258	2285.573730
1576.097656	2270.330811
1575.081055	2306.737305
1574.064453	2239.863525
1573.047852	2325.424316
1572.030273	2263.489990
1571.012695	2294.952393
1569.995117	2257.616699
1568.977539	2306.259521
1567.958984	2281.214600
1566.941406	2332.286621
1565.922852	2304.792236
1564.903320	2282.217285
1563.884766	2289.093506
1562.865234	2192.942627
1561.846680	2280.765137
1560.826172	2272.925537
1559.806641	2292.054443
1558.787109	2274.412109
1557.766602	2305.784180
1556.746094	2359.191406
1555.725586	2275.414063
1554.704102	2319.009521
1553.683594	2249.965820
1552.662109	2315.577637
1551.640625	2371.372803
1550.618164	2400.230225
1549.596680	2223.594482
1548.574219	2372.309082
1547.551758	2357.134521
1546.529297	2273.516357
1545.506836	2375.687012
1544.483398	2284.769531
1543.459961	2294.056885
1542.436523	2205.637451
1541.413086	2310.177246
1540.388672	2351.192627
1539.364258	2240.848145
1538.340820	2291.622559
1537.315430	2332.615479
1536.291016	2251.618164
1535.265625	2246.262207
1534.240234	2331.129883
1533.214844	2259.935547
1532.189453	2393.511719
1531.164063	2317.460449
1530.137695	2248.750244
1529.111328	2306.732666
1528.084961	2347.642822
1527.057617	2281.404541
1526.031250	2297.959717
1525.003906	2299.905273
1523.976563	2323.749023
1522.948242	2335.418701
1521.920898	2291.142578
1520.892578	2288.223877
1519.864258	2304.755859
1518.835938	2399.061523
1517.806641	2357.239014
1516.778320	2305.715820
1515.749023	2424.251953
1514.719727	2392.164795
1513.689453	2306.673340
1512.660156	2386.292236
1511.629883	2383.357666
1510.599609	2312.481445
1509.569336	2387.195801
1508.538086	2447.325439
1507.507813	2342.530518
1506.476563	2371.125732
1505.445313	2399.708496
1504.413086	2428.279053
1503.381836	2451.991455
1502.349609	2407.866211
1501.317383	2349.228516
1500.285156	2401.998535
1499.251953	2413.591309
1498.218750	2318.684082
1497.185547	2502.096924
1496.152344	2416.888428
1495.119141	2488.937256
1494.084961	2488.407227
1493.050781	2512.054688
1492.016602	2506.685059
1490.982422	2513.401123
1489.948242	2602.265381
1488.913086	2509.914307
1487.877930	2581.834961
1486.842773	2586.113770
1485.806641	2532.451172
1484.771484	2618.802246
1483.735352	2519.305664
1482.699219	2680.413574
1481.662109	2583.357910
1480.625977	2761.264160
1479.588867	2705.220459
1478.551758	2731.159424
1477.514648	2771.547363
1476.476563	2749.270020
1475.439453	2885.997070
1474.401367	2935.959473
1473.363281	2783.629883
1472.324219	2978.040527
1471.286133	3056.834229
1470.247070	3022.491211
1469.208008	3062.746582
1468.168945	3129.443848
1467.128906	3164.848877
1466.088867	3185.812256
1465.049805	3271.670898
1464.008789	3386.332764
1462.968750	3356.774902
1461.927734	3247.952393
1460.886719	3338.527100
1459.845703	3438.668213
1458.804688	3411.523926
1457.763672	3381.990967
1456.721680	3453.260498
1455.679688	3514.902344
1454.637695	3554.928711
1453.594727	3563.760986
1452.551758	3567.793701
1451.508789	3559.838379
1450.465820	3604.613281
1449.422852	3472.052002
1448.378906	3533.595459
1447.335938	3456.194092
1446.291016	3577.580078
1445.247070	3442.742920
1444.203125	3353.441650
1443.158203	3285.716553
1442.113281	3249.123535
1441.068359	3382.382813
1440.022461	3293.170166
1438.977539	3342.675781
1437.931641	3107.687256
1436.885742	3140.480713
1435.838867	3089.627441
1434.792969	3213.192139
1433.746094	3064.416748
1432.699219	3121.070313
1431.652344	3058.326416
1430.604492	3124.504150
1429.556641	3061.786133
1428.508789	3104.074951
1427.460938	3077.168945
1426.413086	3100.356689
1425.364258	3097.306152
1424.315430	3053.730713
1423.266602	3138.875000
1422.217773	3073.863525
1421.167969	3139.907715
1420.118164	3127.323486
1419.068359	3071.880859
1418.018555	3071.219971
1416.968750	3063.418213
1415.917969	3029.442383
1414.867188	3078.754639
1413.816406	3068.576660
1412.764648	3006.082031
1411.713867	3033.967285
1410.662109	3107.007080
1409.610352	3210.912354
1408.557617	3224.477539
1407.505859	3290.301270
1406.453125	3403.599609
1405.400391	3374.369873
1404.346680	3290.547607
1403.293945	3365.793945
1402.240234	3298.620850
1401.186523	3385.695068
1400.132813	3171.476807
1399.078125	3194.508057
1398.024414	3181.963135
1396.969727	3157.570557
1395.915039	3116.597900
1394.859375	3127.772461
1393.804688	3141.310791
1392.749023	3157.211426
1391.693359	3083.121338
1390.636719	3153.479248
1389.581055	3216.705322
1388.524414	3163.947754
1387.467773	3134.872070
1386.411133	3103.443359
1385.353516	3209.192871
1384.296875	3225.049316
1383.239258	3165.253662
1382.180664	3112.573975
1381.123047	3211.140381
1380.064453	3182.096436
1379.005859	3327.841553
1377.947266	3305.868164
1376.888672	3208.357910
1375.829102	3221.824219
1374.770508	3155.051270
1373.709961	3218.067627
1372.650391	3080.560547
1371.590820	3162.431396
1370.530273	3058.003906
1369.469727	3073.840820
1368.409180	3132.091553
1367.347656	2964.119873
1366.286133	3024.724365
1365.224609	3115.919678
1364.163086	2983.380371
1363.101563	2938.002686
1362.039063	2944.424805
1360.976563	2990.847412
1359.914063	3074.891602
1358.851563	3034.236572
1357.788086	3078.256836
1356.724609	3056.427002
1355.661133	3060.462646
1354.597656	2977.543701
1353.533203	2948.700439
1352.468750	3096.048096
1351.404297	3083.630615
1350.339844	3167.487549
1349.275391	3129.236572
1348.209961	3067.532227
1347.144531	3024.626221
1346.079102	3134.227295
1345.012695	3023.306396
1343.946289	3046.095947
1342.879883	3263.464111
1341.813477	3124.459473
1340.747070	3067.534912
1339.679688	3102.008301
1338.612305	3120.069580
1337.544922	3119.387451
1336.477539	3071.877930
1335.409180	3089.932861
1334.340820	3002.664063
1333.272461	3062.842773
1332.204102	3148.727295
1331.134766	3059.163330
1330.065430	3154.363525
1328.996094	3022.756592
1327.926758	3045.467041
1326.857422	3014.421631
1325.787109	3109.547119
1324.716797	3069.157715
1323.646484	3206.262939
1322.575195	3161.199951
1321.503906	3130.161621
1320.432617	3110.805176
1319.361328	3086.790527
1318.290039	3153.759766
1317.217773	3136.741943
1316.145508	3173.358887
1315.073242	3135.363525
1314.000000	3127.682373
1312.927734	3138.645020
1311.854492	3184.546387
1310.781250	3172.200439
1309.707031	3127.259521
1308.633789	3117.259033
1307.559570	3100.279785
1306.485352	3195.004883
1305.410156	3196.627441
1304.335938	3256.398926
1303.260742	3120.802979
1302.185547	3210.788818
1301.109375	3275.165527
1300.034180	3146.625732
1298.958008	3208.664307
1297.881836	3242.799805
1296.805664	3195.635498
1295.728516	3246.011475
1294.651367	3182.616943
1293.574219	3198.159668
1292.497070	3220.656250
1291.419922	3305.778320
1290.341797	3330.559814
1289.263672	3327.504150
1288.185547	3340.677490
1287.106445	3381.658203
1286.027344	3329.929443
1284.948242	3329.191895
1283.869141	3333.086670
1282.790039	3462.029297
1281.709961	3375.598389
1280.629883	3467.438477
1279.549805	3466.669189
1278.468750	3482.095703
1277.388672	3504.454590
1276.307617	3480.550049
1275.225586	3507.522705
1274.144531	3552.976074
1273.062500	3510.586426
1271.980469	3537.533447
1270.898438	3536.746826
1269.816406	3501.316406
1268.733398	3576.736572
1267.650391	3545.929443
1266.567383	3568.220215
1265.483398	3602.038574
1264.400391	3594.315186
1263.316406	3563.529785
1262.232422	3523.533936
1261.147461	3555.024658
1260.063477	3600.330811
1258.978516	3537.307861
1257.893555	3472.008545
1256.807617	3623.258301
1255.722656	3606.329102
1254.636719	3554.871094
1253.550781	3671.471924
1252.463867	3656.843018
1251.377930	3598.504639
1250.291016	3537.891357
1249.204102	3727.983643
1248.116211	3740.945068
1247.028320	3751.601318
1245.941406	3771.445557
1244.852539	3664.904297
1243.764648	3721.513916
1242.675781	3610.437256
1241.587891	3689.994629
1240.498047	3833.795166
1239.409180	3660.797119
1238.319336	3676.038086
1237.230469	3615.565186
1236.139648	3516.127197
1235.049805	3552.026855
1233.958984	3574.154541
1232.868164	3557.306396
1231.777344	3549.631592
1230.686523	3574.034668
1229.594727	3451.832031
1228.502930	3393.804688
1227.411133	3404.487793
1226.319336	3341.918213
1225.226563	3391.511475
1224.133789	3285.501221
1223.041016	3323.646729
1221.948242	3304.601563
1220.854492	3340.438477
1219.760742	3431.119873
1218.666992	3213.234619
1217.573242	3285.624268
1216.478516	3223.204834
1215.383789	3195.070313
1214.289063	3246.863770
1213.193359	3300.916504
1212.098633	3407.436523
1211.002930	3381.565918
1209.907227	3357.987793
1208.810547	3281.963379
1207.713867	3365.587402
1206.617188	3296.433838
1205.520508	3377.736572
1204.423828	3310.889404
1203.326172	3367.091553
1202.228516	3309.386719
1201.130859	3322.298096
1200.032227	3392.117676
1198.934570	3348.101563
1197.835938	3274.522705
1196.736328	3342.029297
1195.637695	3295.778809
1194.538086	3317.768799
1193.438477	3266.997070
1192.338867	3363.990479
1191.238281	3306.413086
1190.137695	3251.133301
1189.037109	3179.978516
1187.936523	3265.547363
1186.834961	3323.832275
1185.734375	3275.406738
1184.632813	3363.163330
1183.530273	3362.395264
1182.428711	3429.676270
1181.326172	3292.825195
1180.223633	3375.961426
1179.120117	3275.452393
1178.017578	3358.553467
1176.914063	3364.582031
1175.810547	3395.524414
1174.706055	3417.393311
1173.602539	3477.742432
1172.498047	3316.227295
1171.392578	3369.781738
1170.288086	3328.281982
1169.182617	3313.945801
1168.077148	3385.554932
1166.971680	3364.428223
1165.866211	3431.470947
1164.759766	3297.342285
1163.653320	3459.266846
1162.546875	3420.069092
1161.439453	3455.417236
1160.332031	3384.626221
1159.224609	3532.835693
1158.117188	3455.287842
1157.008789	3375.519043
1155.901367	3419.857910
1154.791992	3335.622314
1153.683594	3249.170410
1152.574219	3379.168945
1151.465820	3326.552246
1150.355469	3361.835938
1149.246094	3394.849854
1148.135742	3349.021240
1147.025391	3249.173096
1145.915039	3297.947021
1144.804688	3283.679932
1143.693359	3426.927246
1142.582031	3327.151611
1141.470703	3353.369629
1140.358398	3388.569336
1139.247070	3383.287598
1138.134766	3384.750488
1137.021484	3370.483154
1135.909180	3407.890625
1134.795898	3357.688477
1133.682617	3368.135742
1132.568359	3452.659180
1131.455078	3476.544678
1130.340820	3412.907959
1129.226563	3573.634277
1128.111328	3478.604248
1126.997070	3410.525391
1125.881836	3456.808105
1124.765625	3462.726074
1123.650391	3491.048340
1122.534180	3541.758789
1121.417969	3594.684570
1120.301758	3412.473877
1119.184570	3469.881592
1118.068359	3516.071289
1116.950195	3459.309814
1115.833008	3554.694824
1114.714844	3620.959473
1113.597656	3633.528320
1112.478516	3610.322998
1111.360352	3598.302490
1110.241211	3646.617432
1109.122070	3630.125244
1108.002930	3700.742920
1106.883789	3865.107666
1105.763672	3819.553711
1104.643555	3666.892578
1103.522461	3864.617432
1102.402344	3857.017090
1101.281250	3867.261963
1100.160156	3826.217285
1099.038086	3849.838379
1097.916992	3958.137939
1096.794922	3823.516602
1095.672852	3954.046143
1094.549805	3924.162109
1093.426758	3947.729492
1092.303711	3895.599121
1091.180664	4021.535400
1090.057617	4138.511230
1088.933594	4157.554688
1087.809570	4165.468262
1086.684570	4144.473145
1085.560547	4276.867188
1084.435547	4306.968750
1083.310547	4354.830566
1082.184570	4396.004883
1081.058594	4594.835938
1079.932617	4524.918457
1078.806641	4612.635742
1077.679688	4702.530273
1076.553711	4799.037109
1075.426758	4937.642578
1074.298828	5027.393555
1073.171875	4899.823730
1072.043945	4947.424316
1070.915039	5045.970703
1069.787109	5046.986328
1068.658203	5092.300293
1067.529297	5029.083008
1066.400391	4795.419922
1065.270508	4783.210449
1064.140625	4627.167480
1063.010742	4641.550781
1061.880859	4602.842285
1060.750000	4415.993164
1059.619141	4386.198730
1058.488281	4298.950684
1057.356445	4286.874512
1056.225586	4179.808105
1055.093750	4165.556152
1053.960938	4283.799316
1052.829102	4112.787109
1051.696289	4248.641602
1050.563477	4161.567871
1049.429688	4255.429199
1048.295898	4210.298828
1047.162109	4226.928223
1046.028320	4223.709473
1044.893555	4178.616699
1043.759766	4296.595215
1042.625000	4335.213867
1041.489258	4340.778320
1040.353516	4427.806152
1039.217773	4464.161621
1038.082031	4425.674316
1036.946289	4550.019531
1035.809570	4564.320801
1034.672852	4512.640137
1033.535156	4540.133301
1032.398438	4697.299805
1031.260742	4542.336914
1030.123047	4624.726563
1028.984375	4496.212891
1027.845703	4495.125488
1026.707031	4564.291992
1025.568359	4484.171387
1024.428711	4437.003906
1023.289063	4438.123047
1022.149414	4568.645996
1021.009766	4576.309570
1019.869141	4461.203125
1018.728516	4416.286621
1017.587891	4391.111816
1016.446289	4341.851074
1015.304688	4432.780762
1014.163086	4282.812012
1013.020508	4257.690918
1011.878906	4352.949219
1010.736328	4362.829590
1009.592773	4361.767090
1008.450195	4507.227539
1007.306641	4499.569824
1006.163086	4767.331543
1005.018555	5013.108887
1003.875000	5219.439453
1002.729492	5285.876465
1001.584961	5040.009277
1000.440430	4870.672363
999.294922	4542.084473
998.149414	4514.788086
997.002930	4537.680176
995.856445	4545.292969
994.709961	4463.500488
993.563477	4449.326660
992.416016	4465.670898
991.268555	4512.511230
990.121094	4507.046875
988.973633	4529.896484
987.825195	4541.847168
986.676758	4542.907715
985.528320	4557.023926
984.378906	4560.253906
983.229492	4648.312988
982.080078	4660.215820
980.929688	4750.379395
979.779297	4783.985352
978.628906	4919.705566
977.478516	5064.047363
976.327148	5258.272461
975.175781	5623.941406
974.024414	5937.327637
972.873047	6330.860352
971.720703	6693.820313
970.568359	7486.112793
969.415039	8069.814941
968.262695	8945.930664
967.109375	9906.149414
965.955078	10941.739258
964.801758	11946.482422
963.647461	12846.753906
962.493164	13783.390625
961.337891	14154.504883
960.182617	14391.238281
959.027344	14357.366211
957.872070	13994.679688
956.715820	13309.912109
955.559570	12456.827148
954.403320	11621.458008
953.247070	10881.595703
952.089844	10135.618164
950.932617	9420.252930
949.774414	8668.529297
948.616211	8329.555664
947.458008	7863.397949
946.299805	7313.311523
945.141602	6968.453613
943.982422	6783.375977
942.822266	6311.596680
941.663086	6021.139160
940.502930	5873.073242
939.342773	5686.295410
938.182617	5469.451660
937.021484	5493.922852
935.860352	5197.569824
934.699219	5090.789063
933.537109	5074.445801
932.375000	4965.596191
931.212891	4929.932129
930.050781	4707.201660
928.887695	4673.768555
927.724609	4663.994141
926.560547	4570.421875
925.397461	4676.680176
924.233398	4628.251465
923.068359	4633.524902
921.904297	4529.317871
920.739258	4485.252441
919.574219	4580.666992
918.408203	4508.724609
917.242188	4432.528809
916.076172	4384.241211
914.910156	4333.833984
913.743164	4409.876465
912.576172	4318.783691
911.409180	4287.704102
910.241211	4269.486816
909.073242	4289.809082
907.905273	4290.859375
906.737305	4264.094238
905.568359	4263.009766
904.399414	4157.141113
903.229492	4224.496094
902.060547	4261.892578
900.890625	4203.112793
899.719727	4212.722656
898.548828	4218.055176
897.378906	4249.006836
896.207031	4211.632813
895.036133	4212.691406
893.864258	4279.888184
892.692383	4295.857910
891.519531	4113.500488
890.346680	4110.315430
889.173828	4194.517090
888.000977	4272.282715
886.827148	4271.187500
885.653320	4261.573242
884.479492	4245.575684
883.304688	4299.830078
882.129883	4405.129395
880.955078	4329.533691
879.779297	4485.817871
878.603516	4376.215332
877.427734	4309.186035
876.251953	4388.839844
875.075195	4400.457520
873.898438	4273.992676
872.720703	4468.270996
871.542969	4377.945313
870.365234	4257.949219
869.187500	4184.699219
868.008789	4293.936523
866.830078	4216.471680
865.651367	4295.956543
864.471680	4275.765625
863.291992	4221.675781
862.112305	4349.826660
860.932617	4357.171875
859.751953	4332.747559
858.571289	4418.425293
857.389648	4465.958984
856.208008	4443.638672
855.026367	4336.710449
853.844727	4460.362793
852.662109	4457.088379
851.479492	4428.448730
850.295898	4433.635254
849.113281	4318.393066
847.929688	4346.837402
846.745117	4358.373535
845.561523	4374.124512
844.376953	4383.535156
843.191406	4312.761230
842.006836	4442.417480
840.821289	4453.909180
839.635742	4528.642578
838.449219	4434.715820
837.262695	4534.700195
836.076172	4520.872070
834.889648	4540.747559
833.702148	4598.512207
832.514648	4321.550781
831.326172	4423.533691
830.137695	4233.021484
828.949219	4259.252441
827.760742	4262.337891
826.571289	4189.740234
825.381836	4201.247559
824.191406	4177.028320
823.001953	4220.039551
821.811523	4134.926270
820.620117	4182.123047
819.429688	4206.206055
818.238281	4226.078613
817.045898	4292.091309
815.854492	4322.415039
814.662109	4455.459961
813.468750	4502.491699
812.276367	4444.718750
811.083008	4420.496094
809.889648	4360.679199
808.695313	4198.291504
807.500977	4126.003418
806.306641	4103.980469
805.111328	4002.462402
803.916016	4009.765381
802.720703	4006.608154
801.525391	3919.828613
800.329102	3764.123779
799.132813	3892.667969
797.935547	3854.030518
796.738281	3802.882568
795.541016	3829.009521
794.342773	3786.242920
793.145508	3858.265381
791.946289	3823.856689
790.748047	3891.658203
789.548828	3788.452148
788.349609	3774.931641
787.150391	3828.102051
785.950195	3924.993164
784.750000	3803.140381
783.548828	3825.024902
782.347656	3759.467285
781.146484	3860.431885
779.945313	3907.247314
778.743164	3822.998291
777.541016	3774.143799
776.337891	3823.020996
775.135742	3813.678955
773.932617	3841.740234
772.728516	3846.936523
771.524414	3808.520264
770.320313	3917.524170
769.116211	3775.333008
767.911133	3869.760742
766.706055	3864.566650
765.500977	3896.703125
764.294922	3692.469971
763.088867	3865.577148
761.881836	3742.274658
760.674805	3714.330566
759.467773	3816.874512
758.260742	3753.725830
757.052734	3729.938721
755.844727	3801.352539
754.636719	3829.282715
753.427734	3828.242188
752.218750	3820.998291
751.008789	3848.897949
749.798828	3810.653076
748.588867	3772.428223
747.378906	3715.634766
746.167969	3757.983154
744.957031	3804.436035
743.745117	3875.627197
742.533203	3769.348877
741.321289	3784.819580
740.109375	3703.366699
738.896484	3722.968262
737.683594	3802.323730
736.469727	3729.171631
735.255859	3822.898438
734.041992	3823.909912
732.828125	3794.040527
731.613281	3638.645020
730.397461	3701.428467
729.182617	3737.436279
727.966797	3705.563721
726.750977	3675.763672
725.534180	3695.304443
724.317383	3792.911133
