#X		#Y		#Wave		#Intensity
-587.000000	2678.000000	1819.745117	1928.668945
-587.000000	2678.000000	1818.780273	1884.599854
-587.000000	2678.000000	1817.815430	1930.838745
-587.000000	2678.000000	1816.850586	1935.598877
-587.000000	2678.000000	1815.885742	1898.907349
-587.000000	2678.000000	1814.920898	1825.971436
-587.000000	2678.000000	1813.955078	1890.308960
-587.000000	2678.000000	1812.989258	1908.018311
-587.000000	2678.000000	1812.023438	1897.248291
-587.000000	2678.000000	1811.057617	1948.589355
-587.000000	2678.000000	1810.091797	1953.338379
-587.000000	2678.000000	1809.125000	1911.525879
-587.000000	2678.000000	1808.158203	1960.244263
-587.000000	2678.000000	1807.191406	2021.868896
-587.000000	2678.000000	1806.223633	1936.124756
-587.000000	2678.000000	1805.256836	1951.208862
-587.000000	2678.000000	1804.289063	1919.777710
-587.000000	2678.000000	1803.321289	1971.024536
-587.000000	2678.000000	1802.353516	1890.531616
-587.000000	2678.000000	1801.384766	1967.583740
-587.000000	2678.000000	1800.416992	1907.779297
-587.000000	2678.000000	1799.448242	1938.336060
-587.000000	2678.000000	1798.479492	1940.494629
-587.000000	2678.000000	1797.510742	1896.214355
-587.000000	2678.000000	1796.541016	1931.912354
-587.000000	2678.000000	1795.571289	1941.807129
-587.000000	2678.000000	1794.601563	1962.010620
-587.000000	2678.000000	1793.631836	1940.962891
-587.000000	2678.000000	1792.662109	1850.343262
-587.000000	2678.000000	1791.691406	1937.542847
-587.000000	2678.000000	1790.721680	2053.040283
-587.000000	2678.000000	1789.750977	1918.673462
-587.000000	2678.000000	1788.779297	1944.005249
-587.000000	2678.000000	1787.808594	2023.385986
-587.000000	2678.000000	1786.836914	2020.373169
-587.000000	2678.000000	1785.865234	1968.471436
-587.000000	2678.000000	1784.893555	1993.770508
-587.000000	2678.000000	1783.921875	1967.617554
-587.000000	2678.000000	1782.949219	2000.620239
-587.000000	2678.000000	1781.977539	1995.044678
-587.000000	2678.000000	1781.004883	2007.464111
-587.000000	2678.000000	1780.031250	1996.749878
-587.000000	2678.000000	1779.058594	1986.040283
-587.000000	2678.000000	1778.084961	2001.022339
-587.000000	2678.000000	1777.112305	2003.157104
-587.000000	2678.000000	1776.138672	2025.831787
-587.000000	2678.000000	1775.164063	2020.259155
-587.000000	2678.000000	1774.190430	2006.989502
-587.000000	2678.000000	1773.215820	2024.516724
-587.000000	2678.000000	1772.241211	2024.078857
-587.000000	2678.000000	1771.266602	2090.326416
-587.000000	2678.000000	1770.291992	1989.868042
-587.000000	2678.000000	1769.316406	2015.074951
-587.000000	2678.000000	1768.340820	2109.476074
-587.000000	2678.000000	1767.365234	2003.953613
-587.000000	2678.000000	1766.389648	2021.455078
-587.000000	2678.000000	1765.414063	2054.317871
-587.000000	2678.000000	1764.437500	2094.849121
-587.000000	2678.000000	1763.460938	2084.155273
-587.000000	2678.000000	1762.484375	2058.106934
-587.000000	2678.000000	1761.507813	2096.052002
-587.000000	2678.000000	1760.531250	2011.161621
-587.000000	2678.000000	1759.553711	2041.425903
-587.000000	2678.000000	1758.576172	2064.004150
-587.000000	2678.000000	1757.598633	2089.129883
-587.000000	2678.000000	1756.620117	2109.131592
-587.000000	2678.000000	1755.642578	2205.803711
-587.000000	2678.000000	1754.664063	2092.889893
-587.000000	2678.000000	1753.685547	2092.438721
-587.000000	2678.000000	1752.707031	2132.856934
-587.000000	2678.000000	1751.727539	2063.445801
-587.000000	2678.000000	1750.749023	2129.385010
-587.000000	2678.000000	1749.769531	2195.295898
-587.000000	2678.000000	1748.790039	2113.155518
-587.000000	2678.000000	1747.809570	2138.216309
-587.000000	2678.000000	1746.830078	2122.449951
-587.000000	2678.000000	1745.849609	2157.699951
-587.000000	2678.000000	1744.869141	2144.486084
-587.000000	2678.000000	1743.888672	2138.926025
-587.000000	2678.000000	1742.908203	2191.991455
-587.000000	2678.000000	1741.926758	2194.068359
-587.000000	2678.000000	1740.945313	2213.978516
-587.000000	2678.000000	1739.963867	2198.219482
-587.000000	2678.000000	1738.982422	2243.586426
-587.000000	2678.000000	1738.000000	2299.118408
-587.000000	2678.000000	1737.018555	2293.533447
-587.000000	2678.000000	1736.036133	2201.420898
-587.000000	2678.000000	1735.053711	2277.281494
-587.000000	2678.000000	1734.070313	2175.036377
-587.000000	2678.000000	1733.087891	2286.477051
-587.000000	2678.000000	1732.104492	2252.929932
-587.000000	2678.000000	1731.121094	2277.868896
-587.000000	2678.000000	1730.137695	2386.674072
-587.000000	2678.000000	1729.154297	2325.173828
-587.000000	2678.000000	1728.169922	2395.812500
-587.000000	2678.000000	1727.185547	2352.117432
-587.000000	2678.000000	1726.201172	2331.296631
-587.000000	2678.000000	1725.216797	2376.498535
-587.000000	2678.000000	1724.231445	2330.297119
-587.000000	2678.000000	1723.247070	2322.183838
-587.000000	2678.000000	1722.261719	2364.821289
-587.000000	2678.000000	1721.276367	2430.271729
-587.000000	2678.000000	1720.290039	2391.707031
-587.000000	2678.000000	1719.304688	2459.659424
-587.000000	2678.000000	1718.318359	2367.865723
-587.000000	2678.000000	1717.332031	2486.487061
-587.000000	2678.000000	1716.345703	2409.931641
-587.000000	2678.000000	1715.358398	2328.341797
-587.000000	2678.000000	1714.372070	2451.961182
-587.000000	2678.000000	1713.384766	2405.851807
-587.000000	2678.000000	1712.397461	2478.763184
-587.000000	2678.000000	1711.409180	2427.604980
-587.000000	2678.000000	1710.421875	2449.863037
-587.000000	2678.000000	1709.433594	2429.096680
-587.000000	2678.000000	1708.445313	2499.410645
-587.000000	2678.000000	1707.457031	2445.762451
-587.000000	2678.000000	1706.468750	2488.227051
-587.000000	2678.000000	1705.479492	2518.032959
-587.000000	2678.000000	1704.490234	2487.163330
-587.000000	2678.000000	1703.500977	2486.631836
-587.000000	2678.000000	1702.511719	2513.892090
-587.000000	2678.000000	1701.521484	2538.614746
-587.000000	2678.000000	1700.532227	2628.988525
-587.000000	2678.000000	1699.541992	2628.426758
-587.000000	2678.000000	1698.551758	2693.499023
-587.000000	2678.000000	1697.560547	2627.304199
-587.000000	2678.000000	1696.570313	2624.219971
-587.000000	2678.000000	1695.579102	2611.045898
-587.000000	2678.000000	1694.587891	2683.632568
-587.000000	2678.000000	1693.596680	2715.841309
-587.000000	2678.000000	1692.604492	2760.642090
-587.000000	2678.000000	1691.613281	2777.697266
-587.000000	2678.000000	1690.621094	2698.982666
-587.000000	2678.000000	1689.628906	2854.617188
-587.000000	2678.000000	1688.636719	2838.894287
-587.000000	2678.000000	1687.643555	2913.842041
-587.000000	2678.000000	1686.650391	2825.093750
-587.000000	2678.000000	1685.657227	2942.807617
-587.000000	2678.000000	1684.664063	2891.843506
-587.000000	2678.000000	1683.670898	2908.841064
-587.000000	2678.000000	1682.676758	2810.106201
-587.000000	2678.000000	1681.683594	2970.481689
-587.000000	2678.000000	1680.689453	3020.142334
-587.000000	2678.000000	1679.694336	2901.333252
-587.000000	2678.000000	1678.700195	2928.364746
-587.000000	2678.000000	1677.705078	2910.149414
-587.000000	2678.000000	1676.709961	2979.880615
-587.000000	2678.000000	1675.714844	3077.214355
-587.000000	2678.000000	1674.719727	3056.467041
-587.000000	2678.000000	1673.723633	3106.034668
-587.000000	2678.000000	1672.728516	2989.894531
-587.000000	2678.000000	1671.732422	2976.708496
-587.000000	2678.000000	1670.735352	3073.938721
-587.000000	2678.000000	1669.739258	3058.231445
-587.000000	2678.000000	1668.742188	3009.923340
-587.000000	2678.000000	1667.746094	3129.654053
-587.000000	2678.000000	1666.748047	3136.509277
-587.000000	2678.000000	1665.750977	3100.748535
-587.000000	2678.000000	1664.753906	3115.125488
-587.000000	2678.000000	1663.755859	3019.249756
-587.000000	2678.000000	1662.757813	3033.637695
-587.000000	2678.000000	1661.759766	3012.956055
-587.000000	2678.000000	1660.761719	3022.331055
-587.000000	2678.000000	1659.762695	3026.695068
-587.000000	2678.000000	1658.763672	3028.554199
-587.000000	2678.000000	1657.764648	2972.857178
-587.000000	2678.000000	1656.765625	2979.730469
-587.000000	2678.000000	1655.765625	2969.091553
-587.000000	2678.000000	1654.766602	2950.954590
-587.000000	2678.000000	1653.766602	3040.336914
-587.000000	2678.000000	1652.766602	3019.692627
-587.000000	2678.000000	1651.765625	2914.083740
-587.000000	2678.000000	1650.765625	3018.408936
-587.000000	2678.000000	1649.764648	3017.767334
-587.000000	2678.000000	1648.763672	2947.192627
-587.000000	2678.000000	1647.762695	2951.560303
-587.000000	2678.000000	1646.761719	2995.871338
-587.000000	2678.000000	1645.759766	3027.683105
-587.000000	2678.000000	1644.757813	3129.354980
-587.000000	2678.000000	1643.755859	3133.680176
-587.000000	2678.000000	1642.753906	3063.170166
-587.000000	2678.000000	1641.750977	3272.007568
-587.000000	2678.000000	1640.749023	3116.723145
-587.000000	2678.000000	1639.746094	3337.924561
-587.000000	2678.000000	1638.742188	3272.415283
-587.000000	2678.000000	1637.739258	3211.917236
-587.000000	2678.000000	1636.735352	3161.409912
-587.000000	2678.000000	1635.732422	3081.035156
-587.000000	2678.000000	1634.728516	3170.028076
-587.000000	2678.000000	1633.723633	3059.809326
-587.000000	2678.000000	1632.719727	2894.875977
-587.000000	2678.000000	1631.714844	2981.363037
-587.000000	2678.000000	1630.709961	2963.313477
-587.000000	2678.000000	1629.705078	2925.370850
-587.000000	2678.000000	1628.700195	2855.113037
-587.000000	2678.000000	1627.694336	2864.452881
-587.000000	2678.000000	1626.689453	2789.265625
-587.000000	2678.000000	1625.683594	2758.848145
-587.000000	2678.000000	1624.676758	2805.476074
-587.000000	2678.000000	1623.670898	2727.864502
-587.000000	2678.000000	1622.664063	2650.285645
-587.000000	2678.000000	1621.657227	2639.789795
-587.000000	2678.000000	1620.650391	2805.577881
-587.000000	2678.000000	1619.643555	2750.372314
-587.000000	2678.000000	1618.635742	2720.007568
-587.000000	2678.000000	1617.628906	2709.505615
-587.000000	2678.000000	1616.621094	2599.779541
-587.000000	2678.000000	1615.613281	2705.875732
-587.000000	2678.000000	1614.604492	2690.423584
-587.000000	2678.000000	1613.596680	2655.145020
-587.000000	2678.000000	1612.587891	2684.324951
-587.000000	2678.000000	1611.579102	2768.010010
-587.000000	2678.000000	1610.569336	2730.259521
-587.000000	2678.000000	1609.560547	2712.341064
-587.000000	2678.000000	1608.550781	2855.402588
-587.000000	2678.000000	1607.541016	2775.565674
-587.000000	2678.000000	1606.531250	2841.814209
-587.000000	2678.000000	1605.521484	2870.910400
-587.000000	2678.000000	1604.510742	2971.751709
-587.000000	2678.000000	1603.500000	2993.386230
-587.000000	2678.000000	1602.489258	3010.064697
-587.000000	2678.000000	1601.478516	2932.768799
-587.000000	2678.000000	1600.467773	2942.035889
-587.000000	2678.000000	1599.456055	2906.807129
-587.000000	2678.000000	1598.444336	2844.409180
-587.000000	2678.000000	1597.432617	2782.037842
-587.000000	2678.000000	1596.419922	2793.798828
-587.000000	2678.000000	1595.408203	2736.403809
-587.000000	2678.000000	1594.395508	2683.971191
-587.000000	2678.000000	1593.382813	2653.778320
-587.000000	2678.000000	1592.370117	2751.939697
-587.000000	2678.000000	1591.356445	2699.536865
-587.000000	2678.000000	1590.343750	2740.904541
-587.000000	2678.000000	1589.330078	2651.527832
-587.000000	2678.000000	1588.316406	2665.761475
-587.000000	2678.000000	1587.301758	2726.833496
-587.000000	2678.000000	1586.288086	2711.465332
-587.000000	2678.000000	1585.273438	2708.426025
-587.000000	2678.000000	1584.258789	2641.325684
-587.000000	2678.000000	1583.244141	2643.228760
-587.000000	2678.000000	1582.228516	2645.131104
-587.000000	2678.000000	1581.213867	2750.451416
-587.000000	2678.000000	1580.198242	2796.643066
-587.000000	2678.000000	1579.182617	2663.139160
-587.000000	2678.000000	1578.166016	2775.770508
-587.000000	2678.000000	1577.150391	2723.516357
-587.000000	2678.000000	1576.133789	2710.639893
-587.000000	2678.000000	1575.117188	2619.073730
-587.000000	2678.000000	1574.100586	2795.544922
-587.000000	2678.000000	1573.083984	2726.122803
-587.000000	2678.000000	1572.066406	2703.425781
-587.000000	2678.000000	1571.048828	2670.909424
-587.000000	2678.000000	1570.031250	2734.215088
-587.000000	2678.000000	1569.013672	2701.705811
-587.000000	2678.000000	1567.995117	2733.055176
-587.000000	2678.000000	1566.976563	2759.481201
-587.000000	2678.000000	1565.958008	2822.713623
-587.000000	2678.000000	1564.939453	2650.333984
-587.000000	2678.000000	1563.920898	2639.957764
-587.000000	2678.000000	1562.901367	2720.345947
-587.000000	2678.000000	1561.881836	2778.627686
-587.000000	2678.000000	1560.862305	2807.461426
-587.000000	2678.000000	1559.842773	2701.455078
-587.000000	2678.000000	1558.822266	2693.529297
-587.000000	2678.000000	1557.802734	2648.851074
-587.000000	2678.000000	1556.782227	2711.985107
-587.000000	2678.000000	1555.761719	2731.004395
-587.000000	2678.000000	1554.740234	2813.684570
-587.000000	2678.000000	1553.719727	2766.570068
-587.000000	2678.000000	1552.698242	2729.266357
-587.000000	2678.000000	1551.676758	2765.395996
-587.000000	2678.000000	1550.654297	2816.190430
-587.000000	2678.000000	1549.632813	2835.162598
-587.000000	2678.000000	1548.610352	2756.298584
-587.000000	2678.000000	1547.587891	2804.617188
-587.000000	2678.000000	1546.565430	2764.907227
-587.000000	2678.000000	1545.542969	2813.203125
-587.000000	2678.000000	1544.519531	2731.966553
-587.000000	2678.000000	1543.496094	2807.122803
-587.000000	2678.000000	1542.472656	2740.577148
-587.000000	2678.000000	1541.449219	2825.467529
-587.000000	2678.000000	1540.424805	2834.634033
-587.000000	2678.000000	1539.400391	2770.565430
-587.000000	2678.000000	1538.375977	2791.941650
-587.000000	2678.000000	1537.351563	2820.628662
-587.000000	2678.000000	1536.327148	2817.590332
-587.000000	2678.000000	1535.301758	2756.018066
-587.000000	2678.000000	1534.276367	2767.625000
-587.000000	2678.000000	1533.250977	2859.677979
-587.000000	2678.000000	1532.225586	2807.885254
-587.000000	2678.000000	1531.199219	2790.230713
-587.000000	2678.000000	1530.173828	2787.201660
-587.000000	2678.000000	1529.147461	2789.045410
-587.000000	2678.000000	1528.121094	2727.569580
-587.000000	2678.000000	1527.093750	2765.947021
-587.000000	2678.000000	1526.067383	2806.742432
-587.000000	2678.000000	1525.040039	2791.543213
-587.000000	2678.000000	1524.012695	2754.451172
-587.000000	2678.000000	1522.984375	2758.731201
-587.000000	2678.000000	1521.957031	2702.203857
-587.000000	2678.000000	1520.928711	2652.995361
-587.000000	2678.000000	1519.900391	2834.770752
-587.000000	2678.000000	1518.872070	2870.628418
-587.000000	2678.000000	1517.842773	2831.135498
-587.000000	2678.000000	1516.814453	2762.503662
-587.000000	2678.000000	1515.785156	2829.931641
-587.000000	2678.000000	1514.755859	2822.044189
-587.000000	2678.000000	1513.725586	2811.731689
-587.000000	2678.000000	1512.696289	2864.540283
-587.000000	2678.000000	1511.666016	2793.546387
-587.000000	2678.000000	1510.635742	2797.805176
-587.000000	2678.000000	1509.605469	2853.008789
-587.000000	2678.000000	1508.574219	2837.848633
-587.000000	2678.000000	1507.543945	2934.244629
-587.000000	2678.000000	1506.512695	2882.706299
-587.000000	2678.000000	1505.481445	2899.060547
-587.000000	2678.000000	1504.449219	2837.857422
-587.000000	2678.000000	1503.417969	2883.289307
-587.000000	2678.000000	1502.385742	2877.830566
-587.000000	2678.000000	1501.353516	2935.343750
-587.000000	2678.000000	1500.321289	2898.397949
-587.000000	2678.000000	1499.288086	2914.727051
-587.000000	2678.000000	1498.255859	2894.743652
-587.000000	2678.000000	1497.222656	2940.104004
-587.000000	2678.000000	1496.189453	2932.219971
-587.000000	2678.000000	1495.155273	2941.270508
-587.000000	2678.000000	1494.122070	2945.480713
-587.000000	2678.000000	1493.087891	2973.866455
-587.000000	2678.000000	1492.053711	2924.887695
-587.000000	2678.000000	1491.018555	3018.517578
-587.000000	2678.000000	1489.984375	3063.782715
-587.000000	2678.000000	1488.949219	3036.556885
-587.000000	2678.000000	1487.914063	2917.564941
-587.000000	2678.000000	1486.878906	3001.457031
-587.000000	2678.000000	1485.843750	3000.817139
-587.000000	2678.000000	1484.807617	3116.032959
-587.000000	2678.000000	1483.771484	3132.260498
-587.000000	2678.000000	1482.735352	3092.990479
-587.000000	2678.000000	1481.699219	3121.276123
-587.000000	2678.000000	1480.662109	3120.610352
-587.000000	2678.000000	1479.625000	3069.312012
-587.000000	2678.000000	1478.587891	3213.291260
-587.000000	2678.000000	1477.550781	3152.354248
-587.000000	2678.000000	1476.513672	3175.777100
-587.000000	2678.000000	1475.475586	3269.051270
-587.000000	2678.000000	1474.437500	3287.621826
-587.000000	2678.000000	1473.399414	3332.671875
-587.000000	2678.000000	1472.361328	3254.920898
-587.000000	2678.000000	1471.322266	3343.283691
-587.000000	2678.000000	1470.283203	3361.821533
-587.000000	2678.000000	1469.244141	3327.420166
-587.000000	2678.000000	1468.205078	3420.521240
-587.000000	2678.000000	1467.166016	3566.490479
-587.000000	2678.000000	1466.125977	3558.515381
-587.000000	2678.000000	1465.085938	3540.927734
-587.000000	2678.000000	1464.045898	3655.532959
-587.000000	2678.000000	1463.004883	3693.197266
-587.000000	2678.000000	1461.964844	3625.142090
-587.000000	2678.000000	1460.923828	3766.075439
-587.000000	2678.000000	1459.882813	3731.651611
-587.000000	2678.000000	1458.841797	3656.428467
-587.000000	2678.000000	1457.799805	3732.455811
-587.000000	2678.000000	1456.757813	3695.660889
-587.000000	2678.000000	1455.715820	3934.796875
-587.000000	2678.000000	1454.673828	3778.035889
-587.000000	2678.000000	1453.631836	3767.634521
-587.000000	2678.000000	1452.588867	3778.816895
-587.000000	2678.000000	1451.545898	3857.115967
-587.000000	2678.000000	1450.502930	3760.422119
-587.000000	2678.000000	1449.458984	3817.125488
-587.000000	2678.000000	1448.416016	3825.890869
-587.000000	2678.000000	1447.372070	3815.490723
-587.000000	2678.000000	1446.328125	3845.803711
-587.000000	2678.000000	1445.284180	3710.908447
-587.000000	2678.000000	1444.239258	3774.740967
-587.000000	2678.000000	1443.194336	3733.249268
-587.000000	2678.000000	1442.150391	3670.241455
-587.000000	2678.000000	1441.104492	3619.220947
-587.000000	2678.000000	1440.059570	3651.927002
-587.000000	2678.000000	1439.013672	3560.283936
-587.000000	2678.000000	1437.967773	3396.963135
-587.000000	2678.000000	1436.921875	3515.736084
-587.000000	2678.000000	1435.875977	3440.906982
-587.000000	2678.000000	1434.829102	3456.891602
-587.000000	2678.000000	1433.783203	3537.358643
-587.000000	2678.000000	1432.735352	3469.735840
-587.000000	2678.000000	1431.688477	3495.253174
-587.000000	2678.000000	1430.641602	3494.502686
-587.000000	2678.000000	1429.593750	3510.457520
-587.000000	2678.000000	1428.545898	3421.424072
-587.000000	2678.000000	1427.498047	3439.772461
-587.000000	2678.000000	1426.449219	3467.652344
-587.000000	2678.000000	1425.401367	3528.901367
-587.000000	2678.000000	1424.352539	3528.143066
-587.000000	2678.000000	1423.303711	3470.183838
-587.000000	2678.000000	1422.253906	3533.774902
-587.000000	2678.000000	1421.205078	3547.309082
-587.000000	2678.000000	1420.155273	3434.600098
-587.000000	2678.000000	1419.105469	3457.674561
-587.000000	2678.000000	1418.055664	3456.930664
-587.000000	2678.000000	1417.004883	3434.764160
-587.000000	2678.000000	1415.955078	3424.505859
-587.000000	2678.000000	1414.904297	3547.490723
-587.000000	2678.000000	1413.852539	3437.304199
-587.000000	2678.000000	1412.801758	3517.424316
-587.000000	2678.000000	1411.750000	3471.489990
-587.000000	2678.000000	1410.698242	3582.471436
-587.000000	2678.000000	1409.646484	3610.220215
-587.000000	2678.000000	1408.594727	3592.808838
-587.000000	2678.000000	1407.541992	3675.183594
-587.000000	2678.000000	1406.490234	3698.143066
-587.000000	2678.000000	1405.437500	3599.984619
-587.000000	2678.000000	1404.383789	3634.820557
-587.000000	2678.000000	1403.331055	3567.574951
-587.000000	2678.000000	1402.277344	3654.610840
-587.000000	2678.000000	1401.223633	3525.701416
-587.000000	2678.000000	1400.169922	3605.591797
-587.000000	2678.000000	1399.115234	3536.037598
-587.000000	2678.000000	1398.061523	3601.664307
-587.000000	2678.000000	1397.006836	3584.292725
-587.000000	2678.000000	1395.952148	3521.897217
-587.000000	2678.000000	1394.896484	3568.527344
-587.000000	2678.000000	1393.841797	3544.066162
-587.000000	2678.000000	1392.786133	3543.300293
-587.000000	2678.000000	1391.730469	3483.334229
-587.000000	2678.000000	1390.673828	3584.383301
-587.000000	2678.000000	1389.618164	3666.452637
-587.000000	2678.000000	1388.561523	3563.901611
-587.000000	2678.000000	1387.504883	3459.028564
-587.000000	2678.000000	1386.448242	3493.761963
-587.000000	2678.000000	1385.390625	3575.778564
-587.000000	2678.000000	1384.333984	3548.996094
-587.000000	2678.000000	1383.276367	3534.044189
-587.000000	2678.000000	1382.217773	3533.279053
-587.000000	2678.000000	1381.160156	3612.851807
-587.000000	2678.000000	1380.101563	3557.734619
-587.000000	2678.000000	1379.042969	3509.726563
-587.000000	2678.000000	1377.984375	3605.781250
-587.000000	2678.000000	1376.925781	3555.422119
-587.000000	2678.000000	1375.866211	3618.380127
-587.000000	2678.000000	1374.807617	3492.525391
-587.000000	2678.000000	1373.747070	3479.971436
-587.000000	2678.000000	1372.687500	3575.926758
-587.000000	2678.000000	1371.627930	3502.044189
-587.000000	2678.000000	1370.567383	3411.688965
-587.000000	2678.000000	1369.506836	3399.162109
-587.000000	2678.000000	1368.446289	3374.856689
-587.000000	2678.000000	1367.384766	3319.930420
-587.000000	2678.000000	1366.323242	3441.706543
-587.000000	2678.000000	1365.261719	3337.329590
-587.000000	2678.000000	1364.200195	3400.181152
-587.000000	2678.000000	1363.138672	3401.796143
-587.000000	2678.000000	1362.076172	3445.776367
-587.000000	2678.000000	1361.013672	3341.488037
-587.000000	2678.000000	1359.951172	3326.645264
-587.000000	2678.000000	1358.888672	3507.035889
-587.000000	2678.000000	1357.825195	3518.031006
-587.000000	2678.000000	1356.761719	3409.114014
-587.000000	2678.000000	1355.698242	3377.813965
-587.000000	2678.000000	1354.634766	3414.679688
-587.000000	2678.000000	1353.570313	3460.927490
-587.000000	2678.000000	1352.506836	3518.900146
-587.000000	2678.000000	1351.442383	3457.070801
-587.000000	2678.000000	1350.376953	3486.841797
-587.000000	2678.000000	1349.312500	3504.861816
-587.000000	2678.000000	1348.247070	3529.914795
-587.000000	2678.000000	1347.181641	3545.570313
-587.000000	2678.000000	1346.116211	3568.256836
-587.000000	2678.000000	1345.049805	3614.387695
-587.000000	2678.000000	1343.984375	3552.629395
-587.000000	2678.000000	1342.917969	3528.409180
-587.000000	2678.000000	1341.851563	3579.205566
-587.000000	2678.000000	1340.784180	3597.171143
-587.000000	2678.000000	1339.716797	3521.411621
-587.000000	2678.000000	1338.650391	3548.750977
-587.000000	2678.000000	1337.582031	3536.265625
-587.000000	2678.000000	1336.514648	3509.737305
-587.000000	2678.000000	1335.446289	3534.719238
-587.000000	2678.000000	1334.378906	3604.156738
-587.000000	2678.000000	1333.310547	3594.008789
-587.000000	2678.000000	1332.241211	3670.420166
-587.000000	2678.000000	1331.172852	3522.270752
-587.000000	2678.000000	1330.103516	3591.648682
-587.000000	2678.000000	1329.034180	3555.794922
-587.000000	2678.000000	1327.964844	3620.459961
-587.000000	2678.000000	1326.894531	3612.656250
-587.000000	2678.000000	1325.824219	3595.510498
-587.000000	2678.000000	1324.753906	3515.306641
-587.000000	2678.000000	1323.683594	3551.899414
-587.000000	2678.000000	1322.612305	3607.153564
-587.000000	2678.000000	1321.541992	3601.693604
-587.000000	2678.000000	1320.470703	3703.585938
-587.000000	2678.000000	1319.399414	3581.447021
-587.000000	2678.000000	1318.327148	3666.969482
-587.000000	2678.000000	1317.254883	3666.164063
-587.000000	2678.000000	1316.182617	3581.418945
-587.000000	2678.000000	1315.110352	3718.169189
-587.000000	2678.000000	1314.038086	3649.763428
-587.000000	2678.000000	1312.964844	3565.076904
-587.000000	2678.000000	1311.891602	3687.761475
-587.000000	2678.000000	1310.818359	3654.343018
-587.000000	2678.000000	1309.745117	3579.024170
-587.000000	2678.000000	1308.670898	3664.374756
-587.000000	2678.000000	1307.596680	3626.327148
-587.000000	2678.000000	1306.522461	3730.245117
-587.000000	2678.000000	1305.448242	3755.015137
-587.000000	2678.000000	1304.373047	3575.084473
-587.000000	2678.000000	1303.297852	3725.453857
-587.000000	2678.000000	1302.222656	3664.182861
-587.000000	2678.000000	1301.147461	3772.625000
-587.000000	2678.000000	1300.071289	3669.538330
-587.000000	2678.000000	1298.996094	3680.345703
-587.000000	2678.000000	1297.919922	3667.918701
-587.000000	2678.000000	1296.842773	3743.748779
-587.000000	2678.000000	1295.766602	3728.990479
-587.000000	2678.000000	1294.689453	3693.345703
-587.000000	2678.000000	1293.612305	3704.133789
-587.000000	2678.000000	1292.535156	3777.566895
-587.000000	2678.000000	1291.457031	3816.169189
-587.000000	2678.000000	1290.378906	3861.712158
-587.000000	2678.000000	1289.300781	3886.364990
-587.000000	2678.000000	1288.222656	3839.138428
-587.000000	2678.000000	1287.144531	3784.979004
-587.000000	2678.000000	1286.065430	3918.543945
-587.000000	2678.000000	1284.986328	3913.042480
-587.000000	2678.000000	1283.907227	3953.868164
-587.000000	2678.000000	1282.827148	3874.256348
-587.000000	2678.000000	1281.748047	3928.963135
-587.000000	2678.000000	1280.667969	4002.163086
-587.000000	2678.000000	1279.586914	3989.704346
-587.000000	2678.000000	1278.506836	3958.740967
-587.000000	2678.000000	1277.425781	3990.246826
-587.000000	2678.000000	1276.344727	3913.042725
-587.000000	2678.000000	1275.263672	4041.654541
-587.000000	2678.000000	1274.182617	4070.808105
-587.000000	2678.000000	1273.100586	4079.147949
-587.000000	2678.000000	1272.018555	3990.437744
-587.000000	2678.000000	1270.936523	4012.651611
-587.000000	2678.000000	1269.853516	4016.378174
-587.000000	2678.000000	1268.771484	4066.284424
-587.000000	2678.000000	1267.688477	4090.773682
-587.000000	2678.000000	1266.605469	4064.474365
-587.000000	2678.000000	1265.521484	4008.188477
-587.000000	2678.000000	1264.438477	3968.076172
-587.000000	2678.000000	1263.354492	4066.371826
-587.000000	2678.000000	1262.270508	4095.443359
-587.000000	2678.000000	1261.185547	4064.558838
-587.000000	2678.000000	1260.101563	4100.531738
-587.000000	2678.000000	1259.016602	4085.790283
-587.000000	2678.000000	1257.930664	4151.692383
-587.000000	2678.000000	1256.845703	3991.829590
-587.000000	2678.000000	1255.759766	3988.635254
-587.000000	2678.000000	1254.674805	4100.561523
-587.000000	2678.000000	1253.587891	4106.550781
-587.000000	2678.000000	1252.501953	4133.249512
-587.000000	2678.000000	1251.415039	4123.122070
-587.000000	2678.000000	1250.329102	4110.698242
-587.000000	2678.000000	1249.241211	4181.072754
-587.000000	2678.000000	1248.154297	4164.041992
-587.000000	2678.000000	1247.066406	4133.225586
-587.000000	2678.000000	1245.979492	4189.756836
-587.000000	2678.000000	1244.890625	4218.688965
-587.000000	2678.000000	1243.802734	4215.446289
-587.000000	2678.000000	1242.713867	4283.403320
-587.000000	2678.000000	1241.625000	4270.961914
-587.000000	2678.000000	1240.536133	4173.584473
-587.000000	2678.000000	1239.447266	4168.057617
-587.000000	2678.000000	1238.357422	4206.131348
-587.000000	2678.000000	1237.267578	4106.538086
-587.000000	2678.000000	1236.177734	3988.640137
-587.000000	2678.000000	1235.087891	4182.659668
-587.000000	2678.000000	1233.997070	3950.166016
-587.000000	2678.000000	1232.906250	4187.655762
-587.000000	2678.000000	1231.815430	4076.718262
-587.000000	2678.000000	1230.724609	4007.069092
-587.000000	2678.000000	1229.632813	4042.816162
-587.000000	2678.000000	1228.541016	3950.304688
-587.000000	2678.000000	1227.449219	3933.388428
-587.000000	2678.000000	1226.357422	3811.185303
-587.000000	2678.000000	1225.264648	3858.384766
-587.000000	2678.000000	1224.171875	4001.656982
-587.000000	2678.000000	1223.079102	3886.382080
-587.000000	2678.000000	1221.986328	3974.695801
-587.000000	2678.000000	1220.892578	3925.784180
-587.000000	2678.000000	1219.798828	3796.887207
-587.000000	2678.000000	1218.705078	3818.883789
-587.000000	2678.000000	1217.611328	3840.869873
-587.000000	2678.000000	1216.516602	3881.120361
-587.000000	2678.000000	1215.421875	3866.540039
-587.000000	2678.000000	1214.327148	3977.548584
-587.000000	2678.000000	1213.231445	3869.357178
-587.000000	2678.000000	1212.136719	3914.127441
-587.000000	2678.000000	1211.041016	3835.661133
-587.000000	2678.000000	1209.945313	3935.167969
-587.000000	2678.000000	1208.848633	3931.995850
-587.000000	2678.000000	1207.752930	3924.264160
-587.000000	2678.000000	1206.656250	3953.010986
-587.000000	2678.000000	1205.558594	4006.815186
-587.000000	2678.000000	1204.461914	3992.234375
-587.000000	2678.000000	1203.364258	3986.772217
-587.000000	2678.000000	1202.266602	3953.980225
-587.000000	2678.000000	1201.168945	4005.456299
-587.000000	2678.000000	1200.071289	3984.057129
-587.000000	2678.000000	1198.972656	3908.041016
-587.000000	2678.000000	1197.874023	3948.113037
-587.000000	2678.000000	1196.775391	3874.413574
-587.000000	2678.000000	1195.675781	3878.081299
-587.000000	2678.000000	1194.576172	3906.761230
-587.000000	2678.000000	1193.476563	3960.435791
-587.000000	2678.000000	1192.376953	3979.990723
-587.000000	2678.000000	1191.276367	3942.724854
-587.000000	2678.000000	1190.176758	3919.106934
-587.000000	2678.000000	1189.076172	4027.242188
-587.000000	2678.000000	1187.974609	3903.694580
-587.000000	2678.000000	1186.874023	3934.589600
-587.000000	2678.000000	1185.772461	3990.438721
-587.000000	2678.000000	1184.670898	3891.945313
-587.000000	2678.000000	1183.569336	4047.606445
-587.000000	2678.000000	1182.466797	3944.607422
-587.000000	2678.000000	1181.364258	3950.509277
-587.000000	2678.000000	1180.261719	3990.417236
-587.000000	2678.000000	1179.159180	4016.705811
-587.000000	2678.000000	1178.055664	4120.034180
-587.000000	2678.000000	1176.952148	3863.063965
-587.000000	2678.000000	1175.848633	3998.092041
-587.000000	2678.000000	1174.745117	4008.499756
-587.000000	2678.000000	1173.640625	3984.939697
-587.000000	2678.000000	1172.536133	4031.562988
-587.000000	2678.000000	1171.431641	4035.164795
-587.000000	2678.000000	1170.326172	4050.077637
-587.000000	2678.000000	1169.221680	4060.458740
-587.000000	2678.000000	1168.116211	4093.450195
-587.000000	2678.000000	1167.010742	4067.638672
-587.000000	2678.000000	1165.904297	4071.225342
-587.000000	2678.000000	1164.797852	4072.549805
-587.000000	2678.000000	1163.691406	3906.670166
-587.000000	2678.000000	1162.584961	4030.015381
-587.000000	2678.000000	1161.478516	4062.965088
-587.000000	2678.000000	1160.371094	3933.327637
-587.000000	2678.000000	1159.263672	4151.391602
-587.000000	2678.000000	1158.155273	4075.957764
-587.000000	2678.000000	1157.047852	4115.633301
-587.000000	2678.000000	1155.939453	4040.241211
-587.000000	2678.000000	1154.831055	4104.714355
-587.000000	2678.000000	1153.722656	4166.902344
-587.000000	2678.000000	1152.613281	4161.432129
-587.000000	2678.000000	1151.503906	4081.589355
-587.000000	2678.000000	1150.394531	4013.049072
-587.000000	2678.000000	1149.285156	3971.572754
-587.000000	2678.000000	1148.174805	3977.411377
-587.000000	2678.000000	1147.064453	4066.559570
-587.000000	2678.000000	1145.954102	3912.539063
-587.000000	2678.000000	1144.842773	3958.897461
-587.000000	2678.000000	1143.732422	4068.237549
-587.000000	2678.000000	1142.621094	4029.052002
-587.000000	2678.000000	1141.508789	3985.385986
-587.000000	2678.000000	1140.397461	4087.896484
-587.000000	2678.000000	1139.285156	4107.181152
-587.000000	2678.000000	1138.172852	4011.832275
-587.000000	2678.000000	1137.060547	4069.323486
-587.000000	2678.000000	1135.947266	4093.090332
-587.000000	2678.000000	1134.834961	4069.680176
-587.000000	2678.000000	1133.720703	4120.379883
-587.000000	2678.000000	1132.607422	4067.789307
-587.000000	2678.000000	1131.493164	4100.509277
-587.000000	2678.000000	1130.379883	4196.042480
-587.000000	2678.000000	1129.264648	4082.898438
-587.000000	2678.000000	1128.150391	4171.661133
-587.000000	2678.000000	1127.035156	4056.332275
-587.000000	2678.000000	1125.919922	4225.762695
-587.000000	2678.000000	1124.804688	4101.508789
-587.000000	2678.000000	1123.689453	4187.941406
-587.000000	2678.000000	1122.573242	4155.601563
-587.000000	2678.000000	1121.457031	4210.624023
-587.000000	2678.000000	1120.340820	4236.511230
-587.000000	2678.000000	1119.223633	4264.624512
-587.000000	2678.000000	1118.106445	4274.818848
-587.000000	2678.000000	1116.989258	4258.156738
-587.000000	2678.000000	1115.872070	4219.130859
-587.000000	2678.000000	1114.753906	4244.982422
-587.000000	2678.000000	1113.635742	4170.200195
-587.000000	2678.000000	1112.517578	4189.343750
-587.000000	2678.000000	1111.399414	4329.166504
-587.000000	2678.000000	1110.280273	4446.579102
-587.000000	2678.000000	1109.161133	4298.096680
-587.000000	2678.000000	1108.041992	4395.359375
-587.000000	2678.000000	1106.921875	4318.410156
-587.000000	2678.000000	1105.802734	4397.761719
-587.000000	2678.000000	1104.682617	4479.307617
-587.000000	2678.000000	1103.561523	4440.323242
-587.000000	2678.000000	1102.441406	4425.895020
-587.000000	2678.000000	1101.320313	4500.684082
-587.000000	2678.000000	1100.199219	4555.369141
-587.000000	2678.000000	1099.077148	4565.443848
-587.000000	2678.000000	1097.956055	4553.226074
-587.000000	2678.000000	1096.833984	4650.193359
-587.000000	2678.000000	1095.711914	4544.398926
-587.000000	2678.000000	1094.588867	4576.734863
-587.000000	2678.000000	1093.465820	4626.867676
-587.000000	2678.000000	1092.342773	4614.645996
-587.000000	2678.000000	1091.219727	4787.149902
-587.000000	2678.000000	1090.096680	4752.644531
-587.000000	2678.000000	1088.972656	4796.012207
-587.000000	2678.000000	1087.848633	4697.024902
-587.000000	2678.000000	1086.723633	4707.031738
-587.000000	2678.000000	1085.599609	4877.083496
-587.000000	2678.000000	1084.474609	5004.829102
-587.000000	2678.000000	1083.349609	4981.425781
-587.000000	2678.000000	1082.223633	5104.641602
-587.000000	2678.000000	1081.097656	5190.044434
-587.000000	2678.000000	1079.971680	5162.171387
-587.000000	2678.000000	1078.845703	5238.639648
-587.000000	2678.000000	1077.719727	5352.797363
-587.000000	2678.000000	1076.592773	5509.056152
-587.000000	2678.000000	1075.465820	5485.566895
-587.000000	2678.000000	1074.337891	5615.105957
-587.000000	2678.000000	1073.210938	5693.588867
-587.000000	2678.000000	1072.083008	5721.051758
-587.000000	2678.000000	1070.954102	5588.942871
-587.000000	2678.000000	1069.826172	5558.811523
-587.000000	2678.000000	1068.697266	5575.208984
-587.000000	2678.000000	1067.568359	5469.800781
-587.000000	2678.000000	1066.439453	5342.301758
-587.000000	2678.000000	1065.309570	5422.926270
-587.000000	2678.000000	1064.180664	5240.174805
-587.000000	2678.000000	1063.049805	5185.828125
-587.000000	2678.000000	1061.919922	5060.727051
-587.000000	2678.000000	1060.789063	5121.436035
-587.000000	2678.000000	1059.658203	5310.342285
-587.000000	2678.000000	1058.527344	5054.892090
-587.000000	2678.000000	1057.396484	4912.260742
-587.000000	2678.000000	1056.264648	4946.433594
-587.000000	2678.000000	1055.132813	4817.146484
-587.000000	2678.000000	1054.000000	4804.953125
-587.000000	2678.000000	1052.868164	4783.934082
-587.000000	2678.000000	1051.735352	4877.693359
-587.000000	2678.000000	1050.602539	4896.383789
-587.000000	2678.000000	1049.468750	4904.034180
-587.000000	2678.000000	1048.335938	4834.487305
-587.000000	2678.000000	1047.202148	4822.302246
-587.000000	2678.000000	1046.067383	4880.665039
-587.000000	2678.000000	1044.933594	4813.375488
-587.000000	2678.000000	1043.798828	4862.896973
-587.000000	2678.000000	1042.664063	4958.654297
-587.000000	2678.000000	1041.528320	4994.901855
-587.000000	2678.000000	1040.393555	4960.672852
-587.000000	2678.000000	1039.257813	4948.472656
-587.000000	2678.000000	1038.122070	4973.689941
-587.000000	2678.000000	1036.985352	4935.088379
-587.000000	2678.000000	1035.848633	5092.276367
-587.000000	2678.000000	1034.711914	5128.434082
-587.000000	2678.000000	1033.575195	5076.628418
-587.000000	2678.000000	1032.437500	5145.742676
-587.000000	2678.000000	1031.299805	5067.585449
-587.000000	2678.000000	1030.162109	5044.391113
-587.000000	2678.000000	1029.023438	5223.285156
-587.000000	2678.000000	1027.885742	5164.927246
-587.000000	2678.000000	1026.747070	5181.241211
-587.000000	2678.000000	1025.607422	5169.013184
-587.000000	2678.000000	1024.468750	5040.487793
-587.000000	2678.000000	1023.329102	5030.491699
-587.000000	2678.000000	1022.189453	5112.618652
-587.000000	2678.000000	1021.048828	5045.595703
-587.000000	2678.000000	1019.908203	4991.757813
-587.000000	2678.000000	1018.767578	5005.888672
-587.000000	2678.000000	1017.626953	4978.379395
-587.000000	2678.000000	1016.485352	5110.800293
-587.000000	2678.000000	1015.344727	4965.010254
-587.000000	2678.000000	1014.202148	5053.576660
-587.000000	2678.000000	1013.060547	4934.138184
-587.000000	2678.000000	1011.917969	4954.823242
-587.000000	2678.000000	1010.775391	4993.000977
-587.000000	2678.000000	1009.632813	5039.909180
-587.000000	2678.000000	1008.489258	5025.559570
-587.000000	2678.000000	1007.345703	5120.535645
-587.000000	2678.000000	1006.202148	5344.430664
-587.000000	2678.000000	1005.058594	5544.177246
-587.000000	2678.000000	1003.914063	5861.803711
-587.000000	2678.000000	1002.769531	6061.324219
-587.000000	2678.000000	1001.625000	5937.554688
-587.000000	2678.000000	1000.479492	5612.990723
-587.000000	2678.000000	999.333984	5314.776367
-587.000000	2678.000000	998.188477	5176.001953
-587.000000	2678.000000	997.042969	5122.376953
-587.000000	2678.000000	995.896484	5055.690918
-587.000000	2678.000000	994.750000	5100.243164
-587.000000	2678.000000	993.603516	5085.913086
-587.000000	2678.000000	992.456055	5182.741211
-587.000000	2678.000000	991.308594	5174.932617
-587.000000	2678.000000	990.161133	5167.127441
-587.000000	2678.000000	989.012695	5048.254883
-587.000000	2678.000000	987.865234	5221.199707
-587.000000	2678.000000	986.716797	5100.193359
-587.000000	2678.000000	985.567383	5146.816406
-587.000000	2678.000000	984.418945	5099.860352
-587.000000	2678.000000	983.269531	5161.684570
-587.000000	2678.000000	982.119141	5295.241211
-587.000000	2678.000000	980.969727	5270.021484
-587.000000	2678.000000	979.819336	5307.846680
-587.000000	2678.000000	978.668945	5480.379883
-587.000000	2678.000000	977.518555	5598.514648
-587.000000	2678.000000	976.367188	5727.450195
-587.000000	2678.000000	975.215820	5956.206055
-587.000000	2678.000000	974.064453	6210.898926
-587.000000	2678.000000	972.912109	6521.893555
-587.000000	2678.000000	971.760742	6867.450195
-587.000000	2678.000000	970.607422	7518.702148
-587.000000	2678.000000	969.455078	8078.543457
-587.000000	2678.000000	968.301758	8815.898438
-587.000000	2678.000000	967.148438	9286.264648
-587.000000	2678.000000	965.995117	10200.656250
-587.000000	2678.000000	964.840820	10965.097656
-587.000000	2678.000000	963.687500	11820.132813
-587.000000	2678.000000	962.532227	12464.686523
-587.000000	2678.000000	961.377930	12777.675781
-587.000000	2678.000000	960.222656	13049.384766
-587.000000	2678.000000	959.067383	13290.660156
-587.000000	2678.000000	957.912109	12794.108398
-587.000000	2678.000000	956.755859	12152.892578
-587.000000	2678.000000	955.599609	11637.405273
-587.000000	2678.000000	954.443359	10934.101563
-587.000000	2678.000000	953.286133	10373.785156
-587.000000	2678.000000	952.129883	9742.444336
-587.000000	2678.000000	950.972656	9206.462891
-587.000000	2678.000000	949.814453	8726.896484
-587.000000	2678.000000	948.656250	8133.137695
-587.000000	2678.000000	947.498047	7781.427246
-587.000000	2678.000000	946.339844	7593.896484
-587.000000	2678.000000	945.180664	7035.380859
-587.000000	2678.000000	944.022461	6871.853516
-587.000000	2678.000000	942.862305	6760.159668
-587.000000	2678.000000	941.703125	6633.429688
-587.000000	2678.000000	940.542969	6429.172363
-587.000000	2678.000000	939.382813	6188.385254
-587.000000	2678.000000	938.222656	6156.674805
-587.000000	2678.000000	937.061523	6008.681641
-587.000000	2678.000000	935.900391	5781.096680
-587.000000	2678.000000	934.739258	5702.152344
-587.000000	2678.000000	933.577148	5556.533691
-587.000000	2678.000000	932.415039	5561.591309
-587.000000	2678.000000	931.252930	5586.003418
-587.000000	2678.000000	930.090820	5472.776855
-587.000000	2678.000000	928.927734	5346.706543
-587.000000	2678.000000	927.764648	5293.776367
-587.000000	2678.000000	926.600586	5393.434570
-587.000000	2678.000000	925.437500	5273.921387
-587.000000	2678.000000	924.273438	5233.932617
-587.000000	2678.000000	923.108398	5318.497559
-587.000000	2678.000000	921.944336	5327.887695
-587.000000	2678.000000	920.779297	5214.945801
-587.000000	2678.000000	919.614258	5168.571777
-587.000000	2678.000000	918.448242	5182.279297
-587.000000	2678.000000	917.283203	5210.990234
-587.000000	2678.000000	916.116211	5254.692871
-587.000000	2678.000000	914.950195	5105.470703
-587.000000	2678.000000	913.783203	5112.748047
-587.000000	2678.000000	912.616211	5147.870117
-587.000000	2678.000000	911.449219	5131.572266
-587.000000	2678.000000	910.282227	5063.893555
-587.000000	2678.000000	909.114258	5036.919922
-587.000000	2678.000000	907.945313	4907.234863
-587.000000	2678.000000	906.777344	5047.197754
-587.000000	2678.000000	905.608398	4979.605469
-587.000000	2678.000000	904.439453	4971.922852
-587.000000	2678.000000	903.270508	5021.967285
-587.000000	2678.000000	902.100586	5076.260254
-587.000000	2678.000000	900.930664	4910.431152
-587.000000	2678.000000	899.759766	5035.219727
-587.000000	2678.000000	898.589844	4976.270508
-587.000000	2678.000000	897.418945	4834.078125
-587.000000	2678.000000	896.248047	5010.019531
-587.000000	2678.000000	895.076172	4970.326172
-587.000000	2678.000000	893.904297	5071.466797
-587.000000	2678.000000	892.732422	4912.327148
-587.000000	2678.000000	891.559570	5024.090820
-587.000000	2678.000000	890.387695	5048.388184
-587.000000	2678.000000	889.214844	5015.124512
-587.000000	2678.000000	888.041016	5022.363281
-587.000000	2678.000000	886.867188	5108.417480
-587.000000	2678.000000	885.693359	5068.771973
-587.000000	2678.000000	884.519531	5007.854004
-587.000000	2678.000000	883.344727	5106.614258
-587.000000	2678.000000	882.169922	5160.633301
-587.000000	2678.000000	880.995117	5231.643555
-587.000000	2678.000000	879.820313	5181.377441
-587.000000	2678.000000	878.644531	5135.389160
-587.000000	2678.000000	877.468750	5189.340820
-587.000000	2678.000000	876.291992	5153.999023
-587.000000	2678.000000	875.115234	5114.424316
-587.000000	2678.000000	873.938477	5195.952148
-587.000000	2678.000000	872.761719	5109.663574
-587.000000	2678.000000	871.583984	5131.699707
-587.000000	2678.000000	870.406250	5056.083496
-587.000000	2678.000000	869.228516	5050.533203
-587.000000	2678.000000	868.049805	5123.481445
-587.000000	2678.000000	866.871094	5149.729492
-587.000000	2678.000000	865.692383	5195.046387
-587.000000	2678.000000	864.512695	5106.787109
-587.000000	2678.000000	863.333008	5041.884766
-587.000000	2678.000000	862.153320	5091.429199
-587.000000	2678.000000	860.972656	5236.267090
-587.000000	2678.000000	859.791992	5179.849121
-587.000000	2678.000000	858.611328	5256.838867
-587.000000	2678.000000	857.430664	5327.437988
-587.000000	2678.000000	856.249023	5251.993164
-587.000000	2678.000000	855.067383	5400.827637
-587.000000	2678.000000	853.884766	5289.446777
-587.000000	2678.000000	852.703125	5304.985352
-587.000000	2678.000000	851.519531	5246.531250
-587.000000	2678.000000	850.336914	5253.618164
-587.000000	2678.000000	849.153320	5248.023926
-587.000000	2678.000000	847.969727	5160.056152
-587.000000	2678.000000	846.786133	5112.254395
-587.000000	2678.000000	845.601563	5199.585938
-587.000000	2678.000000	844.416992	5257.322754
-587.000000	2678.000000	843.232422	5296.039063
-587.000000	2678.000000	842.046875	5273.560547
-587.000000	2678.000000	840.862305	5409.258301
-587.000000	2678.000000	839.675781	5329.834961
-587.000000	2678.000000	838.490234	5180.895996
-587.000000	2678.000000	837.303711	5303.864746
-587.000000	2678.000000	836.117188	5275.088379
-587.000000	2678.000000	834.929688	5305.297363
-587.000000	2678.000000	833.742188	5247.055176
-587.000000	2678.000000	832.554688	5239.363281
-587.000000	2678.000000	831.367188	5208.524902
-587.000000	2678.000000	830.178711	5234.507324
-587.000000	2678.000000	828.990234	5212.098145
-587.000000	2678.000000	827.800781	5111.895996
-587.000000	2678.000000	826.612305	5121.062012
-587.000000	2678.000000	825.422852	5210.086426
-587.000000	2678.000000	824.232422	5244.433105
-587.000000	2678.000000	823.042969	5085.507324
-587.000000	2678.000000	821.851563	4972.865234
-587.000000	2678.000000	820.661133	5009.343750
-587.000000	2678.000000	819.469727	5066.791016
-587.000000	2678.000000	818.278320	5042.371094
-587.000000	2678.000000	817.086914	5236.134766
-587.000000	2678.000000	815.895508	5282.987305
-587.000000	2678.000000	814.703125	5216.592285
-587.000000	2678.000000	813.509766	5299.057617
-587.000000	2678.000000	812.317383	5322.801758
-587.000000	2678.000000	811.124023	5208.259277
-587.000000	2678.000000	809.929688	5123.099609
-587.000000	2678.000000	808.736328	4996.105469
-587.000000	2678.000000	807.541992	4982.219727
-587.000000	2678.000000	806.347656	5066.702148
-587.000000	2678.000000	805.152344	4933.543945
-587.000000	2678.000000	803.957031	4848.564941
-587.000000	2678.000000	802.761719	4824.272949
-587.000000	2678.000000	801.566406	4806.264648
-587.000000	2678.000000	800.370117	4938.747559
-587.000000	2678.000000	799.172852	4818.332031
-587.000000	2678.000000	797.976563	4940.294434
-587.000000	2678.000000	796.779297	4838.735840
-587.000000	2678.000000	795.582031	4743.494141
-587.000000	2678.000000	794.383789	4859.113770
-587.000000	2678.000000	793.186523	4772.262207
-587.000000	2678.000000	791.987305	4841.915527
-587.000000	2678.000000	790.789063	4813.508789
-587.000000	2678.000000	789.589844	4833.071777
-587.000000	2678.000000	788.390625	4831.778320
-587.000000	2678.000000	787.191406	4845.072266
-587.000000	2678.000000	785.991211	4825.023926
-587.000000	2678.000000	784.791016	4898.711426
-587.000000	2678.000000	783.589844	4814.108398
-587.000000	2678.000000	782.388672	5012.657227
-587.000000	2678.000000	781.187500	4869.795898
-587.000000	2678.000000	779.986328	4793.588379
-587.000000	2678.000000	778.784180	4779.819824
-587.000000	2678.000000	777.582031	4880.427246
-587.000000	2678.000000	776.379883	4808.432617
-587.000000	2678.000000	775.176758	4965.089844
-587.000000	2678.000000	773.973633	4901.420410
-587.000000	2678.000000	772.769531	4839.860840
-587.000000	2678.000000	771.566406	4813.636719
-587.000000	2678.000000	770.361328	4756.284180
-587.000000	2678.000000	769.157227	4759.151855
-587.000000	2678.000000	767.952148	4903.113281
-587.000000	2678.000000	766.747070	4804.292480
-587.000000	2678.000000	765.541992	4929.497559
-587.000000	2678.000000	764.335938	4973.776367
-587.000000	2678.000000	763.129883	4899.885254
-587.000000	2678.000000	761.922852	4846.755371
-587.000000	2678.000000	760.716797	4839.227539
-587.000000	2678.000000	759.509766	4978.745605
-587.000000	2678.000000	758.301758	4799.335449
-587.000000	2678.000000	757.093750	4895.318848
-587.000000	2678.000000	755.885742	4883.643066
-587.000000	2678.000000	754.677734	4917.485840
-587.000000	2678.000000	753.468750	4932.695313
-587.000000	2678.000000	752.259766	4887.933594
-587.000000	2678.000000	751.049805	4892.805176
-587.000000	2678.000000	749.840820	4831.543945
-587.000000	2678.000000	748.629883	4815.766113
-587.000000	2678.000000	747.419922	4814.454102
-587.000000	2678.000000	746.208984	4937.031738
-587.000000	2678.000000	744.998047	4888.207031
-587.000000	2678.000000	743.787109	4855.916992
-587.000000	2678.000000	742.575195	4852.527832
-587.000000	2678.000000	741.363281	4824.388672
-587.000000	2678.000000	740.150391	4870.496094
-587.000000	2678.000000	738.937500	4803.197266
-587.000000	2678.000000	737.724609	4791.578613
-587.000000	2678.000000	736.511719	4957.153320
-587.000000	2678.000000	735.297852	4788.954102
-587.000000	2678.000000	734.083984	4773.227051
-587.000000	2678.000000	732.869141	5012.778809
-587.000000	2678.000000	731.654297	4937.312500
-587.000000	2678.000000	730.439453	4907.151855
-587.000000	2678.000000	729.223633	5029.220703
-587.000000	2678.000000	728.007813	4881.835449
-587.000000	2678.000000	726.791992	4944.223145
-587.000000	2678.000000	725.576172	4846.266602
-587.000000	2678.000000	724.359375	4855.205566
-587.000000	2778.000000	1819.745117	1835.346313
-587.000000	2778.000000	1818.780273	1783.500366
-587.000000	2778.000000	1817.815430	1881.595947
-587.000000	2778.000000	1816.850586	1785.311401
-587.000000	2778.000000	1815.885742	1891.135498
-587.000000	2778.000000	1814.920898	1841.511597
-587.000000	2778.000000	1813.955078	1851.467041
-587.000000	2778.000000	1812.989258	1871.773804
-587.000000	2778.000000	1812.023438	1881.718262
-587.000000	2778.000000	1811.057617	1896.833984
-587.000000	2778.000000	1810.091797	1948.163940
-587.000000	2778.000000	1809.125000	1875.312988
-587.000000	2778.000000	1808.158203	1877.489868
-587.000000	2778.000000	1807.191406	1869.323730
-587.000000	2778.000000	1806.223633	1855.991333
-587.000000	2778.000000	1805.256836	1925.365112
-587.000000	2778.000000	1804.289063	1855.182251
-587.000000	2778.000000	1803.321289	1929.692383
-587.000000	2778.000000	1802.353516	1903.445068
-587.000000	2778.000000	1801.384766	1939.180298
-587.000000	2778.000000	1800.416992	1951.665894
-587.000000	2778.000000	1799.448242	1920.268921
-587.000000	2778.000000	1798.479492	2017.907959
-587.000000	2778.000000	1797.510742	1922.013184
-587.000000	2778.000000	1796.541016	1880.325928
-587.000000	2778.000000	1795.571289	1887.653198
-587.000000	2778.000000	1794.601563	1982.636108
-587.000000	2778.000000	1793.631836	1920.341797
-587.000000	2778.000000	1792.662109	2059.086670
-587.000000	2778.000000	1791.691406	1991.649780
-587.000000	2778.000000	1790.721680	1993.793091
-587.000000	2778.000000	1789.750977	1970.181519
-587.000000	2778.000000	1788.779297	1956.879517
-587.000000	2778.000000	1787.808594	1953.880371
-587.000000	2778.000000	1786.836914	1927.719116
-587.000000	2778.000000	1785.865234	1960.751953
-587.000000	2778.000000	1784.893555	2019.496582
-587.000000	2778.000000	1783.921875	1908.460449
-587.000000	2778.000000	1782.949219	1920.904053
-587.000000	2778.000000	1781.977539	2007.899414
-587.000000	2778.000000	1781.004883	1956.056641
-587.000000	2778.000000	1780.031250	1924.794922
-587.000000	2778.000000	1779.058594	1950.070557
-587.000000	2778.000000	1778.084961	1921.392334
-587.000000	2778.000000	1777.112305	2008.293457
-587.000000	2778.000000	1776.138672	1956.506714
-587.000000	2778.000000	1775.164063	2038.228394
-587.000000	2778.000000	1774.190430	2001.856567
-587.000000	2778.000000	1773.215820	2037.346436
-587.000000	2778.000000	1772.241211	2024.078857
-587.000000	2778.000000	1771.266602	1980.039185
-587.000000	2778.000000	1770.291992	2015.510742
-587.000000	2778.000000	1769.316406	2063.785400
-587.000000	2778.000000	1768.340820	2019.765747
-587.000000	2778.000000	1767.365234	2055.205566
-587.000000	2778.000000	1766.389648	2021.455078
-587.000000	2778.000000	1765.414063	2038.948853
-587.000000	2778.000000	1764.437500	1997.533447
-587.000000	2778.000000	1763.460938	2035.507935
-587.000000	2778.000000	1762.484375	2119.542969
-587.000000	2778.000000	1761.507813	2124.204102
-587.000000	2778.000000	1760.531250	2044.425171
-587.000000	2778.000000	1759.553711	2128.403809
-587.000000	2778.000000	1758.576172	2023.082153
-587.000000	2778.000000	1757.598633	2178.627441
-587.000000	2778.000000	1756.620117	2055.444580
-587.000000	2778.000000	1755.642578	2047.333496
-587.000000	2778.000000	1754.664063	2018.782593
-587.000000	2778.000000	1753.685547	2115.432617
-587.000000	2778.000000	1752.707031	2068.999023
-587.000000	2778.000000	1751.727539	2142.612549
-587.000000	2778.000000	1750.749023	2075.767578
-587.000000	2778.000000	1749.769531	2072.767822
-587.000000	2778.000000	1748.790039	2128.468262
-587.000000	2778.000000	1747.809570	1995.328369
-587.000000	2778.000000	1746.830078	2107.143799
-587.000000	2778.000000	1745.849609	2070.983887
-587.000000	2778.000000	1744.869141	2175.085205
-587.000000	2778.000000	1743.888672	2141.475342
-587.000000	2778.000000	1742.908203	2107.880127
-587.000000	2778.000000	1741.926758	2084.492432
-587.000000	2778.000000	1740.945313	2178.310303
-587.000000	2778.000000	1739.963867	2126.898438
-587.000000	2778.000000	1738.982422	2172.280762
-587.000000	2778.000000	1738.000000	2151.445313
-587.000000	2778.000000	1737.018555	2206.984863
-587.000000	2778.000000	1736.036133	2173.426025
-587.000000	2778.000000	1735.053711	2211.125977
-587.000000	2778.000000	1734.070313	2210.651123
-587.000000	2778.000000	1733.087891	2227.979980
-587.000000	2778.000000	1732.104492	2306.328857
-587.000000	2778.000000	1731.121094	2249.904053
-587.000000	2778.000000	1730.137695	2257.046387
-587.000000	2778.000000	1729.154297	2284.515137
-587.000000	2778.000000	1728.169922	2309.431152
-587.000000	2778.000000	1727.185547	2347.037109
-587.000000	2778.000000	1726.201172	2341.454834
-587.000000	2778.000000	1725.216797	2346.030762
-587.000000	2778.000000	1724.231445	2317.604736
-587.000000	2778.000000	1723.247070	2451.616943
-587.000000	2778.000000	1722.261719	2283.625732
-587.000000	2778.000000	1721.276367	2323.725586
-587.000000	2778.000000	1720.290039	2366.344238
-587.000000	2778.000000	1719.304688	2401.337646
-587.000000	2778.000000	1718.318359	2390.682617
-587.000000	2778.000000	1717.332031	2354.685547
-587.000000	2778.000000	1716.345703	2389.658691
-587.000000	2778.000000	1715.358398	2414.482666
-587.000000	2778.000000	1714.372070	2378.503662
-587.000000	2778.000000	1713.384766	2413.449219
-587.000000	2778.000000	1712.397461	2357.230225
-587.000000	2778.000000	1711.409180	2483.295410
-587.000000	2778.000000	1710.421875	2465.048340
-587.000000	2778.000000	1709.433594	2444.278564
-587.000000	2778.000000	1708.445313	2441.225830
-587.000000	2778.000000	1707.457031	2455.879150
-587.000000	2778.000000	1706.468750	2533.743408
-587.000000	2778.000000	1705.479492	2411.850830
-587.000000	2778.000000	1704.490234	2532.660156
-587.000000	2778.000000	1703.500977	2537.173096
-587.000000	2778.000000	1702.511719	2531.577881
-587.000000	2778.000000	1701.521484	2606.816406
-587.000000	2778.000000	1700.532227	2535.546875
-587.000000	2778.000000	1699.541992	2661.250732
-587.000000	2778.000000	1698.551758	2597.572998
-587.000000	2778.000000	1697.560547	2624.780273
-587.000000	2778.000000	1696.570313	2702.441895
-587.000000	2778.000000	1695.579102	2679.160156
-587.000000	2778.000000	1694.587891	2746.687744
-587.000000	2778.000000	1693.596680	2662.886230
-587.000000	2778.000000	1692.604492	2700.135010
-587.000000	2778.000000	1691.613281	2699.558594
-587.000000	2778.000000	1690.621094	2769.544189
-587.000000	2778.000000	1689.628906	2811.785156
-587.000000	2778.000000	1688.636719	2869.122070
-587.000000	2778.000000	1687.643555	2792.956543
-587.000000	2778.000000	1686.650391	2847.754883
-587.000000	2778.000000	1685.657227	2806.869629
-587.000000	2778.000000	1684.664063	2942.180176
-587.000000	2778.000000	1683.670898	2931.487793
-587.000000	2778.000000	1682.676758	2973.630615
-587.000000	2778.000000	1681.683594	2879.933350
-587.000000	2778.000000	1680.689453	2874.290283
-587.000000	2778.000000	1679.694336	2931.503174
-587.000000	2778.000000	1678.700195	2883.119629
-587.000000	2778.000000	1677.705078	2957.897949
-587.000000	2778.000000	1676.709961	2987.418213
-587.000000	2778.000000	1675.714844	3014.414063
-587.000000	2778.000000	1674.719727	2973.588135
-587.000000	2778.000000	1673.723633	3010.618896
-587.000000	2778.000000	1672.728516	3022.529785
-587.000000	2778.000000	1671.732422	3129.810791
-587.000000	2778.000000	1670.735352	3151.728271
-587.000000	2778.000000	1669.739258	3033.143555
-587.000000	2778.000000	1668.742188	3100.220947
-587.000000	2778.000000	1667.746094	3076.991455
-587.000000	2778.000000	1666.748047	3058.786133
-587.000000	2778.000000	1665.750977	2982.935059
-587.000000	2778.000000	1664.753906	3027.410645
-587.000000	2778.000000	1663.755859	2994.193604
-587.000000	2778.000000	1662.757813	2978.526123
-587.000000	2778.000000	1661.759766	2947.838135
-587.000000	2778.000000	1660.761719	2944.707031
-587.000000	2778.000000	1659.762695	2886.500732
-587.000000	2778.000000	1658.763672	2910.916016
-587.000000	2778.000000	1657.764648	3002.885986
-587.000000	2778.000000	1656.765625	2914.681885
-587.000000	2778.000000	1655.765625	2911.560547
-587.000000	2778.000000	1654.766602	2975.962646
-587.000000	2778.000000	1653.766602	2935.325439
-587.000000	2778.000000	1652.766602	2974.697266
-587.000000	2778.000000	1651.765625	2876.595459
-587.000000	2778.000000	1650.765625	2883.479980
-587.000000	2778.000000	1649.764648	2912.844971
-587.000000	2778.000000	1648.763672	2932.206787
-587.000000	2778.000000	1647.762695	2861.665283
-587.000000	2778.000000	1646.761719	3013.347168
-587.000000	2778.000000	1645.759766	2915.361572
-587.000000	2778.000000	1644.757813	3047.003662
-587.000000	2778.000000	1643.755859	3068.811035
-587.000000	2778.000000	1642.753906	3170.430908
-587.000000	2778.000000	1641.750977	3199.684326
-587.000000	2778.000000	1640.749023	3278.792725
-587.000000	2778.000000	1639.746094	3270.617676
-587.000000	2778.000000	1638.742188	3225.061279
-587.000000	2778.000000	1637.739258	3164.573242
-587.000000	2778.000000	1636.735352	3171.375000
-587.000000	2778.000000	1635.732422	3056.127930
-587.000000	2778.000000	1634.728516	3023.106201
-587.000000	2778.000000	1633.723633	3062.299072
-587.000000	2778.000000	1632.719727	3011.865967
-587.000000	2778.000000	1631.714844	2939.056641
-587.000000	2778.000000	1630.709961	2963.313477
-587.000000	2778.000000	1629.705078	2830.843506
-587.000000	2778.000000	1628.700195	2899.879639
-587.000000	2778.000000	1627.694336	2829.641846
-587.000000	2778.000000	1626.689453	2739.546143
-587.000000	2778.000000	1625.683594	2756.362549
-587.000000	2778.000000	1624.676758	2775.656982
-587.000000	2778.000000	1623.670898	2703.020508
-587.000000	2778.000000	1622.664063	2722.317627
-587.000000	2778.000000	1621.657227	2758.989990
-587.000000	2778.000000	1620.650391	2688.885742
-587.000000	2778.000000	1619.643555	2713.137939
-587.000000	2778.000000	1618.635742	2724.971191
-587.000000	2778.000000	1617.628906	2674.768311
-587.000000	2778.000000	1616.621094	2661.797119
-587.000000	2778.000000	1615.613281	2621.549561
-587.000000	2778.000000	1614.604492	2633.391602
-587.000000	2778.000000	1613.596680	2670.019775
-587.000000	2778.000000	1612.587891	2657.060303
-587.000000	2778.000000	1611.579102	2626.759766
-587.000000	2778.000000	1610.569336	2730.259521
-587.000000	2778.000000	1609.560547	2677.662842
-587.000000	2778.000000	1608.550781	2672.141846
-587.000000	2778.000000	1607.541016	2785.469727
-587.000000	2778.000000	1606.531250	2822.010498
-587.000000	2778.000000	1605.521484	2927.833496
-587.000000	2778.000000	1604.510742	2793.594971
-587.000000	2778.000000	1603.500000	2978.542969
-587.000000	2778.000000	1602.489258	3024.904785
-587.000000	2778.000000	1601.478516	2974.806885
-587.000000	2778.000000	1600.467773	2909.895996
-587.000000	2778.000000	1599.456055	2859.843262
-587.000000	2778.000000	1598.444336	2814.754395
-587.000000	2778.000000	1597.432617	2769.684326
-587.000000	2778.000000	1596.419922	2838.262451
-587.000000	2778.000000	1595.408203	2746.282471
-587.000000	2778.000000	1594.395508	2728.415771
-587.000000	2778.000000	1593.382813	2698.213623
-587.000000	2778.000000	1592.370117	2638.406738
-587.000000	2778.000000	1591.356445	2734.083008
-587.000000	2778.000000	1590.343750	2634.820801
-587.000000	2778.000000	1589.330078	2673.726563
-587.000000	2778.000000	1588.316406	2665.761475
-587.000000	2778.000000	1587.301758	2697.247559
-587.000000	2778.000000	1586.288086	2711.465332
-587.000000	2778.000000	1585.273438	2703.497070
-587.000000	2778.000000	1584.258789	2651.181396
-587.000000	2778.000000	1583.244141	2611.204590
-587.000000	2778.000000	1582.228516	2669.760010
-587.000000	2778.000000	1581.213867	2671.656006
-587.000000	2778.000000	1580.198242	2676.013184
-587.000000	2778.000000	1579.182617	2631.142090
-587.000000	2778.000000	1578.166016	2694.564453
-587.000000	2778.000000	1577.150391	2605.423340
-587.000000	2778.000000	1576.133789	2631.927979
-587.000000	2778.000000	1575.117188	2692.850342
-587.000000	2778.000000	1574.100586	2766.040283
-587.000000	2778.000000	1573.083984	2647.460938
-587.000000	2778.000000	1572.066406	2664.103271
-587.000000	2778.000000	1571.048828	2742.166504
-587.000000	2778.000000	1570.031250	2721.931885
-587.000000	2778.000000	1569.013672	2741.003418
-587.000000	2778.000000	1567.995117	2644.654541
-587.000000	2778.000000	1566.976563	2671.099121
-587.000000	2778.000000	1565.958008	2704.895996
-587.000000	2778.000000	1564.939453	2858.925049
-587.000000	2778.000000	1563.920898	2711.109131
-587.000000	2778.000000	1562.901367	2774.311279
-587.000000	2778.000000	1561.881836	2685.434570
-587.000000	2778.000000	1560.862305	2635.826172
-587.000000	2778.000000	1559.842773	2745.580322
-587.000000	2778.000000	1558.822266	2634.707764
-587.000000	2778.000000	1557.802734	2707.659912
-587.000000	2778.000000	1556.782227	2743.833252
-587.000000	2778.000000	1555.761719	2723.656494
-587.000000	2778.000000	1554.740234	2781.850098
-587.000000	2778.000000	1553.719727	2746.983643
-587.000000	2778.000000	1552.698242	2736.609619
-587.000000	2778.000000	1551.676758	2655.269531
-587.000000	2778.000000	1550.654297	2710.980957
-587.000000	2778.000000	1549.632813	2703.066895
-587.000000	2778.000000	1548.610352	2692.710449
-587.000000	2778.000000	1547.587891	2743.487793
-587.000000	2778.000000	1546.565430	2645.119141
-587.000000	2778.000000	1545.542969	2737.435059
-587.000000	2778.000000	1544.519531	2643.996338
-587.000000	2778.000000	1543.496094	2636.105713
-587.000000	2778.000000	1542.472656	2760.117920
-587.000000	2778.000000	1541.449219	2732.669189
-587.000000	2778.000000	1540.424805	2778.478271
-587.000000	2778.000000	1539.400391	2690.011475
-587.000000	2778.000000	1538.375977	2704.083496
-587.000000	2778.000000	1537.351563	2688.869385
-587.000000	2778.000000	1536.327148	2673.661377
-587.000000	2778.000000	1535.301758	2702.361084
-587.000000	2778.000000	1534.276367	2757.871338
-587.000000	2778.000000	1533.250977	2830.423096
-587.000000	2778.000000	1532.225586	2717.701416
-587.000000	2778.000000	1531.199219	2851.152832
-587.000000	2778.000000	1530.173828	2697.056152
-587.000000	2778.000000	1529.147461	2757.379395
-587.000000	2778.000000	1528.121094	2756.793457
-587.000000	2778.000000	1527.093750	2736.729248
-587.000000	2778.000000	1526.067383	2804.308105
-587.000000	2778.000000	1525.040039	2752.602783
-587.000000	2778.000000	1524.012695	2771.484131
-587.000000	2778.000000	1522.984375	2753.865723
-587.000000	2778.000000	1521.957031	2721.661621
-587.000000	2778.000000	1520.928711	2757.558838
-587.000000	2778.000000	1519.900391	2759.403809
-587.000000	2778.000000	1518.872070	2768.540039
-587.000000	2778.000000	1517.842773	2865.157715
-587.000000	2778.000000	1516.814453	2806.237061
-587.000000	2778.000000	1515.785156	2723.050293
-587.000000	2778.000000	1514.755859	2773.471924
-587.000000	2778.000000	1513.725586	2804.447266
-587.000000	2778.000000	1512.696289	2840.264648
-587.000000	2778.000000	1511.666016	2844.514648
-587.000000	2778.000000	1510.635742	2848.762695
-587.000000	2778.000000	1509.605469	2772.949707
-587.000000	2778.000000	1508.574219	2835.423096
-587.000000	2778.000000	1507.543945	2776.620117
-587.000000	2778.000000	1506.512695	2751.784424
-587.000000	2778.000000	1505.481445	2823.917725
-587.000000	2778.000000	1504.449219	2842.704346
-587.000000	2778.000000	1503.417969	2822.715820
-587.000000	2778.000000	1502.385742	2783.356445
-587.000000	2778.000000	1501.353516	2879.639893
-587.000000	2778.000000	1500.321289	2905.662109
-587.000000	2778.000000	1499.288086	2931.673096
-587.000000	2778.000000	1498.255859	2889.902832
-587.000000	2778.000000	1497.222656	2865.089111
-587.000000	2778.000000	1496.189453	2874.156250
-587.000000	2778.000000	1495.155273	2975.134033
-587.000000	2778.000000	1494.122070	2904.369629
-587.000000	2778.000000	1493.087891	2860.230957
-587.000000	2778.000000	1492.053711	2932.139404
-587.000000	2778.000000	1491.018555	2914.597412
-587.000000	2778.000000	1489.984375	2979.214600
-587.000000	2778.000000	1488.949219	3026.894043
-587.000000	2778.000000	1487.914063	2953.792969
-587.000000	2778.000000	1486.878906	2970.066162
-587.000000	2778.000000	1485.843750	3058.757324
-587.000000	2778.000000	1484.807617	2980.868164
-587.000000	2778.000000	1483.771484	3016.429688
-587.000000	2778.000000	1482.735352	3037.500000
-587.000000	2778.000000	1481.699219	3010.318848
-587.000000	2778.000000	1480.662109	3067.555176
-587.000000	2778.000000	1479.625000	3151.288818
-587.000000	2778.000000	1478.587891	3157.848145
-587.000000	2778.000000	1477.550781	3036.671631
-587.000000	2778.000000	1476.513672	3129.995850
-587.000000	2778.000000	1475.475586	3211.234619
-587.000000	2778.000000	1474.437500	3186.464111
-587.000000	2778.000000	1473.399414	3296.552002
-587.000000	2778.000000	1472.361328	3269.365723
-587.000000	2778.000000	1471.322266	3352.911621
-587.000000	2778.000000	1470.283203	3308.879395
-587.000000	2778.000000	1469.244141	3445.311523
-587.000000	2778.000000	1468.205078	3471.035400
-587.000000	2778.000000	1467.166016	3499.152832
-587.000000	2778.000000	1466.125977	3508.022705
-587.000000	2778.000000	1465.085938	3483.234375
-587.000000	2778.000000	1464.045898	3523.347412
-587.000000	2778.000000	1463.004883	3669.168701
-587.000000	2778.000000	1461.964844	3646.763184
-587.000000	2778.000000	1460.923828	3636.376221
-587.000000	2778.000000	1459.882813	3712.440918
-587.000000	2778.000000	1458.841797	3670.833496
-587.000000	2778.000000	1457.799805	3713.253662
-587.000000	2778.000000	1456.757813	3760.454834
-587.000000	2778.000000	1455.715820	3819.632080
-587.000000	2778.000000	1454.673828	3734.858398
-587.000000	2778.000000	1453.631836	3825.192383
-587.000000	2778.000000	1452.588867	3716.475830
-587.000000	2778.000000	1451.545898	3890.677002
-587.000000	2778.000000	1450.502930	3690.917969
-587.000000	2778.000000	1449.458984	3711.693359
-587.000000	2778.000000	1448.416016	3787.560059
-587.000000	2778.000000	1447.372070	3803.514893
-587.000000	2778.000000	1446.328125	3781.148438
-587.000000	2778.000000	1445.284180	3871.315430
-587.000000	2778.000000	1444.239258	3710.113281
-587.000000	2778.000000	1443.194336	3819.401123
-587.000000	2778.000000	1442.150391	3651.100830
-587.000000	2778.000000	1441.104492	3669.454834
-587.000000	2778.000000	1440.059570	3599.312500
-587.000000	2778.000000	1439.013672	3553.110596
-587.000000	2778.000000	1437.967773	3492.584961
-587.000000	2778.000000	1436.921875	3561.146729
-587.000000	2778.000000	1435.875977	3467.191650
-587.000000	2778.000000	1434.829102	3418.667480
-587.000000	2778.000000	1433.783203	3441.818848
-587.000000	2778.000000	1432.735352	3534.211426
-587.000000	2778.000000	1431.688477	3473.765869
-587.000000	2778.000000	1430.641602	3506.437500
-587.000000	2778.000000	1429.593750	3488.979492
-587.000000	2778.000000	1428.545898	3433.353760
-587.000000	2778.000000	1427.498047	3382.522461
-587.000000	2778.000000	1426.449219	3496.271240
-587.000000	2778.000000	1425.401367	3495.519775
-587.000000	2778.000000	1424.352539	3549.597900
-587.000000	2778.000000	1423.303711	3534.534668
-587.000000	2778.000000	1422.253906	3359.826416
-587.000000	2778.000000	1421.205078	3432.956543
-587.000000	2778.000000	1420.155273	3439.363770
-587.000000	2778.000000	1419.105469	3498.156982
-587.000000	2778.000000	1418.055664	3583.113281
-587.000000	2778.000000	1417.004883	3463.327637
-587.000000	2778.000000	1415.955078	3460.202637
-587.000000	2778.000000	1414.904297	3380.941895
-587.000000	2778.000000	1413.852539	3465.849365
-587.000000	2778.000000	1412.801758	3545.963379
-587.000000	2778.000000	1411.750000	3540.444092
-587.000000	2778.000000	1410.698242	3572.962646
-587.000000	2778.000000	1409.646484	3607.843506
-587.000000	2778.000000	1408.594727	3673.599609
-587.000000	2778.000000	1407.541992	3556.399414
-587.000000	2778.000000	1406.490234	3662.515625
-587.000000	2778.000000	1405.437500	3642.728516
-587.000000	2778.000000	1404.383789	3741.657227
-587.000000	2778.000000	1403.331055	3698.124756
-587.000000	2778.000000	1402.277344	3512.223389
-587.000000	2778.000000	1401.223633	3720.255615
-587.000000	2778.000000	1400.169922	3579.498779
-587.000000	2778.000000	1399.115234	3630.901123
-587.000000	2778.000000	1398.061523	3611.148682
-587.000000	2778.000000	1397.006836	3520.287598
-587.000000	2778.000000	1395.952148	3526.637451
-587.000000	2778.000000	1394.896484	3542.462402
-587.000000	2778.000000	1393.841797	3513.268799
-587.000000	2778.000000	1392.786133	3581.196533
-587.000000	2778.000000	1391.730469	3485.702148
-587.000000	2778.000000	1390.673828	3544.135986
-587.000000	2778.000000	1389.618164	3541.002686
-587.000000	2778.000000	1388.561523	3497.640625
-587.000000	2778.000000	1387.504883	3515.811523
-587.000000	2778.000000	1386.448242	3444.087646
-587.000000	2778.000000	1385.390625	3554.494141
-587.000000	2778.000000	1384.333984	3603.377686
-587.000000	2778.000000	1383.276367	3444.215576
-587.000000	2778.000000	1382.217773	3483.647705
-587.000000	2778.000000	1381.160156	3459.264404
-587.000000	2778.000000	1380.101563	3449.065430
-587.000000	2778.000000	1379.042969	3530.983398
-587.000000	2778.000000	1377.984375	3525.495361
-587.000000	2778.000000	1376.925781	3477.514404
-587.000000	2778.000000	1375.866211	3495.643066
-587.000000	2778.000000	1374.807617	3506.684326
-587.000000	2778.000000	1373.747070	3529.516602
-587.000000	2778.000000	1372.687500	3417.887695
-587.000000	2778.000000	1371.627930	3516.193848
-587.000000	2778.000000	1370.567383	3435.266602
-587.000000	2778.000000	1369.506836	3413.305664
-587.000000	2778.000000	1368.446289	3405.494141
-587.000000	2778.000000	1367.384766	3454.235596
-587.000000	2778.000000	1366.323242	3371.034912
-587.000000	2778.000000	1365.261719	3318.488037
-587.000000	2778.000000	1364.200195	3447.275146
-587.000000	2778.000000	1363.138672	3288.795410
-587.000000	2778.000000	1362.076172	3295.141357
-587.000000	2778.000000	1361.013672	3310.896973
-587.000000	2778.000000	1359.951172	3413.693115
-587.000000	2778.000000	1358.888672	3405.894043
-587.000000	2778.000000	1357.825195	3402.801270
-587.000000	2778.000000	1356.761719	3387.953857
-587.000000	2778.000000	1355.698242	3438.929443
-587.000000	2778.000000	1354.634766	3402.929199
-587.000000	2778.000000	1353.570313	3432.732666
-587.000000	2778.000000	1352.506836	3453.126221
-587.000000	2778.000000	1351.442383	3473.510742
-587.000000	2778.000000	1350.376953	3397.616211
-587.000000	2778.000000	1349.312500	3394.528076
-587.000000	2778.000000	1348.247070	3454.810303
-587.000000	2778.000000	1347.181641	3463.442627
-587.000000	2778.000000	1346.116211	3446.265137
-587.000000	2778.000000	1345.049805	3443.167480
-587.000000	2778.000000	1343.984375	3632.358398
-587.000000	2778.000000	1342.917969	3429.941895
-587.000000	2778.000000	1341.851563	3607.332764
-587.000000	2778.000000	1340.784180	3508.120605
-587.000000	2778.000000	1339.716797	3554.212646
-587.000000	2778.000000	1338.650391	3511.272461
-587.000000	2778.000000	1337.582031	3426.196533
-587.000000	2778.000000	1336.514648	3467.592285
-587.000000	2778.000000	1335.446289	3581.536621
-587.000000	2778.000000	1334.378906	3562.030273
-587.000000	2778.000000	1333.310547	3507.434326
-587.000000	2778.000000	1332.241211	3516.023926
-587.000000	2778.000000	1331.172852	3576.063721
-587.000000	2778.000000	1330.103516	3509.807861
-587.000000	2778.000000	1329.034180	3546.443848
-587.000000	2778.000000	1327.964844	3571.376953
-587.000000	2778.000000	1326.894531	3622.003418
-587.000000	2778.000000	1325.824219	3471.688477
-587.000000	2778.000000	1324.753906	3578.371826
-587.000000	2778.000000	1323.683594	3642.973633
-587.000000	2778.000000	1322.612305	3520.768799
-587.000000	2778.000000	1321.541992	3526.998779
-587.000000	2778.000000	1320.470703	3654.578369
-587.000000	2778.000000	1319.399414	3628.110840
-587.000000	2778.000000	1318.327148	3669.302246
-587.000000	2778.000000	1317.254883	3577.541748
-587.000000	2778.000000	1316.182617	3567.428955
-587.000000	2778.000000	1315.110352	3599.281006
-587.000000	2778.000000	1314.038086	3507.595215
-587.000000	2778.000000	1312.964844	3551.096191
-587.000000	2778.000000	1311.891602	3708.728027
-587.000000	2778.000000	1310.818359	3563.508301
-587.000000	2778.000000	1309.745117	3625.595703
-587.000000	2778.000000	1308.670898	3641.093994
-587.000000	2778.000000	1307.596680	3598.396484
-587.000000	2778.000000	1306.522461	3504.522217
-587.000000	2778.000000	1305.448242	3643.341797
-587.000000	2778.000000	1304.373047	3682.081055
-587.000000	2778.000000	1303.297852	3604.527832
-587.000000	2778.000000	1302.222656	3694.407715
-587.000000	2778.000000	1301.147461	3619.209473
-587.000000	2778.000000	1300.071289	3564.959961
-587.000000	2778.000000	1298.996094	3615.289063
-587.000000	2778.000000	1297.919922	3607.522217
-587.000000	2778.000000	1296.842773	3678.720947
-587.000000	2778.000000	1295.766602	3696.483643
-587.000000	2778.000000	1294.689453	3716.559570
-587.000000	2778.000000	1293.612305	3704.133789
-587.000000	2778.000000	1292.535156	3861.100342
-587.000000	2778.000000	1291.457031	3816.169189
-587.000000	2778.000000	1290.378906	3697.038574
-587.000000	2778.000000	1289.300781	3689.264160
-587.000000	2778.000000	1288.222656	3792.771973
-587.000000	2778.000000	1287.144531	3903.187256
-587.000000	2778.000000	1286.065430	3906.957520
-587.000000	2778.000000	1284.986328	3774.035645
-587.000000	2778.000000	1283.907227	3780.148193
-587.000000	2778.000000	1282.827148	3837.204102
-587.000000	2778.000000	1281.748047	3912.756348
-587.000000	2778.000000	1280.667969	3895.685791
-587.000000	2778.000000	1279.586914	3894.821533
-587.000000	2778.000000	1278.506836	3937.917725
-587.000000	2778.000000	1277.425781	4018.005127
-587.000000	2778.000000	1276.344727	3993.986328
-587.000000	2778.000000	1275.263672	4062.464111
-587.000000	2778.000000	1274.182617	4019.951904
-587.000000	2778.000000	1273.100586	4005.191895
-587.000000	2778.000000	1272.018555	3983.505859
-587.000000	2778.000000	1270.936523	4054.233398
-587.000000	2778.000000	1269.853516	3988.663086
-587.000000	2778.000000	1268.771484	3985.466797
-587.000000	2778.000000	1267.688477	3945.334229
-587.000000	2778.000000	1266.605469	3986.000732
-587.000000	2778.000000	1265.521484	4061.261719
-587.000000	2778.000000	1264.438477	3945.005859
-587.000000	2778.000000	1263.354492	4013.322021
-587.000000	2778.000000	1262.270508	3904.045898
-587.000000	2778.000000	1261.185547	4004.616455
-587.000000	2778.000000	1260.101563	3881.560303
-587.000000	2778.000000	1259.016602	3991.307861
-587.000000	2778.000000	1257.930664	3932.818604
-587.000000	2778.000000	1256.845703	3978.009277
-587.000000	2778.000000	1255.759766	3917.245361
-587.000000	2778.000000	1254.674805	3976.232422
-587.000000	2778.000000	1253.587891	4078.928467
-587.000000	2778.000000	1252.501953	4045.797607
-587.000000	2778.000000	1251.415039	4060.999023
-587.000000	2778.000000	1250.329102	4083.093994
-587.000000	2778.000000	1249.241211	4153.475098
-587.000000	2778.000000	1248.154297	4166.341309
-587.000000	2778.000000	1247.066406	4098.743652
-587.000000	2778.000000	1245.979492	4134.598145
-587.000000	2778.000000	1244.890625	4248.559570
-587.000000	2778.000000	1243.802734	4121.259277
-587.000000	2778.000000	1242.713867	4113.445313
-587.000000	2778.000000	1241.625000	4082.671875
-587.000000	2778.000000	1240.536133	4162.105957
-587.000000	2778.000000	1239.447266	4124.448730
-587.000000	2778.000000	1238.357422	4082.218994
-587.000000	2778.000000	1237.267578	4017.066162
-587.000000	2778.000000	1236.177734	4103.322266
-587.000000	2778.000000	1235.087891	4104.693359
-587.000000	2778.000000	1233.997070	4108.355957
-587.000000	2778.000000	1232.906250	3981.367188
-587.000000	2778.000000	1231.815430	4049.219238
-587.000000	2778.000000	1230.724609	3947.501465
-587.000000	2778.000000	1229.632813	3976.390137
-587.000000	2778.000000	1228.541016	3959.464844
-587.000000	2778.000000	1227.449219	3931.098877
-587.000000	2778.000000	1226.357422	3870.699463
-587.000000	2778.000000	1225.264648	3853.807861
-587.000000	2778.000000	1224.171875	3855.227051
-587.000000	2778.000000	1223.079102	3945.855713
-587.000000	2778.000000	1221.986328	3844.340332
-587.000000	2778.000000	1220.892578	3720.006348
-587.000000	2778.000000	1219.798828	3764.884521
-587.000000	2778.000000	1218.705078	3750.322266
-587.000000	2778.000000	1217.611328	3856.864014
-587.000000	2778.000000	1216.516602	3935.945068
-587.000000	2778.000000	1215.421875	3740.928955
-587.000000	2778.000000	1214.327148	3831.416016
-587.000000	2778.000000	1213.231445	3862.508545
-587.000000	2778.000000	1212.136719	3948.361816
-587.000000	2778.000000	1211.041016	3849.351807
-587.000000	2778.000000	1209.945313	3946.574219
-587.000000	2778.000000	1208.848633	3904.626953
-587.000000	2778.000000	1207.752930	4058.797363
-587.000000	2778.000000	1206.656250	3900.577637
-587.000000	2778.000000	1205.558594	3863.226318
-587.000000	2778.000000	1204.461914	3907.923340
-587.000000	2778.000000	1203.364258	3877.420654
-587.000000	2778.000000	1202.266602	3933.481689
-587.000000	2778.000000	1201.168945	3953.082520
-587.000000	2778.000000	1200.071289	3842.907715
-587.000000	2778.000000	1198.972656	3842.034424
-587.000000	2778.000000	1197.874023	3841.161133
-587.000000	2778.000000	1196.775391	3892.614014
-587.000000	2778.000000	1195.675781	3875.806885
-587.000000	2778.000000	1194.576172	3879.472900
-587.000000	2778.000000	1193.476563	3883.136963
-587.000000	2778.000000	1192.376953	3861.795898
-587.000000	2778.000000	1191.276367	3901.820557
-587.000000	2778.000000	1190.176758	3803.237793
-587.000000	2778.000000	1189.076172	3868.242188
-587.000000	2778.000000	1187.974609	3849.192871
-587.000000	2778.000000	1186.874023	3934.589600
-587.000000	2778.000000	1185.772461	3779.340332
-587.000000	2778.000000	1184.670898	3846.558350
-587.000000	2778.000000	1183.569336	3857.023926
-587.000000	2778.000000	1182.466797	3826.654785
-587.000000	2778.000000	1181.364258	3975.455078
-587.000000	2778.000000	1180.261719	4015.357422
-587.000000	2778.000000	1179.159180	4037.106689
-587.000000	2778.000000	1178.055664	3938.734375
-587.000000	2778.000000	1176.952148	3860.798340
-587.000000	2778.000000	1175.848633	4016.213623
-587.000000	2778.000000	1174.745117	4026.617432
-587.000000	2778.000000	1173.640625	3982.675537
-587.000000	2778.000000	1172.536133	3886.689209
-587.000000	2778.000000	1171.431641	3960.481445
-587.000000	2778.000000	1170.326172	3921.108643
-587.000000	2778.000000	1169.221680	4006.168457
-587.000000	2778.000000	1168.116211	4034.649170
-587.000000	2778.000000	1167.010742	4035.983887
-587.000000	2778.000000	1165.904297	4012.451416
-587.000000	2778.000000	1164.797852	3903.048340
-587.000000	2778.000000	1163.691406	4064.834961
-587.000000	2778.000000	1162.584961	4014.202637
-587.000000	2778.000000	1161.478516	4144.269531
-587.000000	2778.000000	1160.371094	4086.867432
-587.000000	2778.000000	1159.263672	4074.639404
-587.000000	2778.000000	1158.155273	4055.645508
-587.000000	2778.000000	1157.047852	4124.658691
-587.000000	2778.000000	1155.939453	3988.356689
-587.000000	2778.000000	1154.831055	4021.267090
-587.000000	2778.000000	1153.722656	3979.752686
-587.000000	2778.000000	1152.613281	3987.851318
-587.000000	2778.000000	1151.503906	3971.154297
-587.000000	2778.000000	1150.394531	3925.172119
-587.000000	2778.000000	1149.285156	3946.792480
-587.000000	2778.000000	1148.174805	3997.681396
-587.000000	2778.000000	1147.064453	3985.498535
-587.000000	2778.000000	1145.954102	3876.520264
-587.000000	2778.000000	1144.842773	3893.628662
-587.000000	2778.000000	1143.732422	4020.984619
-587.000000	2778.000000	1142.621094	3966.062988
-587.000000	2778.000000	1141.508789	4048.360352
-587.000000	2778.000000	1140.397461	4018.190674
-587.000000	2778.000000	1139.285156	4017.259277
-587.000000	2778.000000	1138.172852	4043.297607
-587.000000	2778.000000	1137.060547	4071.570557
-587.000000	2778.000000	1135.947266	4045.914307
-587.000000	2778.000000	1134.834961	4074.172119
-587.000000	2778.000000	1133.720703	4041.789551
-587.000000	2778.000000	1132.607422	4101.462891
-587.000000	2778.000000	1131.493164	4064.599121
-587.000000	2778.000000	1130.379883	4041.215088
-587.000000	2778.000000	1129.264648	3948.297363
-587.000000	2778.000000	1128.150391	4131.290527
-587.000000	2778.000000	1127.035156	4208.809082
-587.000000	2778.000000	1125.919922	4095.739502
-587.000000	2778.000000	1124.804688	4191.159180
-587.000000	2778.000000	1123.689453	4176.737793
-587.000000	2778.000000	1122.573242	4189.204590
-587.000000	2778.000000	1121.457031	4123.276367
-587.000000	2778.000000	1120.340820	4225.315430
-587.000000	2778.000000	1119.223633	4248.954102
-587.000000	2778.000000	1118.106445	4129.340820
-587.000000	2778.000000	1116.989258	4099.287109
-587.000000	2778.000000	1115.872070	4183.337402
-587.000000	2778.000000	1114.753906	4113.025879
-587.000000	2778.000000	1113.635742	4065.106689
-587.000000	2778.000000	1112.517578	4236.289551
-587.000000	2778.000000	1111.399414	4242.002441
-587.000000	2778.000000	1110.280273	4200.788086
-587.000000	2778.000000	1109.161133	4320.436035
-587.000000	2778.000000	1108.041992	4274.754883
-587.000000	2778.000000	1106.921875	4378.698242
-587.000000	2778.000000	1105.802734	4408.923828
-587.000000	2778.000000	1104.682617	4329.774414
-587.000000	2778.000000	1103.561523	4413.547363
-587.000000	2778.000000	1102.441406	4325.509277
-587.000000	2778.000000	1101.320313	4362.407227
-587.000000	2778.000000	1100.199219	4421.584473
-587.000000	2778.000000	1099.077148	4471.816406
-587.000000	2778.000000	1097.956055	4528.710449
-587.000000	2778.000000	1096.833984	4418.463867
-587.000000	2778.000000	1095.711914	4486.479980
-587.000000	2778.000000	1094.588867	4547.782227
-587.000000	2778.000000	1093.465820	4575.655762
-587.000000	2778.000000	1092.342773	4579.028809
-587.000000	2778.000000	1091.219727	4595.752930
-587.000000	2778.000000	1090.096680	4525.692383
-587.000000	2778.000000	1088.972656	4671.440430
-587.000000	2778.000000	1087.848633	4661.441406
-587.000000	2778.000000	1086.723633	4818.204102
-587.000000	2778.000000	1085.599609	4859.300293
-587.000000	2778.000000	1084.474609	4813.703125
-587.000000	2778.000000	1083.349609	4908.104492
-587.000000	2778.000000	1082.223633	5018.009277
-587.000000	2778.000000	1081.097656	4990.171387
-587.000000	2778.000000	1079.971680	5368.658203
-587.000000	2778.000000	1078.845703	5387.363770
-587.000000	2778.000000	1077.719727	5206.328125
-587.000000	2778.000000	1076.592773	5340.434082
-587.000000	2778.000000	1075.465820	5348.039551
-587.000000	2778.000000	1074.337891	5479.829102
-587.000000	2778.000000	1073.210938	5542.824219
-587.000000	2778.000000	1072.083008	5499.391602
-587.000000	2778.000000	1070.954102	5458.194336
-587.000000	2778.000000	1069.826172	5428.094238
-587.000000	2778.000000	1068.697266	5479.962891
-587.000000	2778.000000	1067.568359	5394.507813
-587.000000	2778.000000	1066.439453	5213.891602
-587.000000	2778.000000	1065.309570	5232.570313
-587.000000	2778.000000	1064.180664	5129.529297
-587.000000	2778.000000	1063.049805	5176.978516
-587.000000	2778.000000	1061.919922	5003.218750
-587.000000	2778.000000	1060.789063	4946.741211
-587.000000	2778.000000	1059.658203	5124.634766
-587.000000	2778.000000	1058.527344	4873.649902
-587.000000	2778.000000	1057.396484	4896.792480
-587.000000	2778.000000	1056.264648	4809.462402
-587.000000	2778.000000	1055.132813	4735.425293
-587.000000	2778.000000	1054.000000	4754.165527
-587.000000	2778.000000	1052.868164	4806.010254
-587.000000	2778.000000	1051.735352	4855.622559
-587.000000	2778.000000	1050.602539	4819.153809
-587.000000	2778.000000	1049.468750	4800.350098
-587.000000	2778.000000	1048.335938	4722.005859
-587.000000	2778.000000	1047.202148	4753.947754
-587.000000	2778.000000	1046.067383	4818.940430
-587.000000	2778.000000	1044.933594	4991.893555
-587.000000	2778.000000	1043.798828	4792.388184
-587.000000	2778.000000	1042.664063	4833.090820
-587.000000	2778.000000	1041.528320	5008.115723
-587.000000	2778.000000	1040.393555	4881.407715
-587.000000	2778.000000	1039.257813	4961.680176
-587.000000	2778.000000	1038.122070	4960.485352
-587.000000	2778.000000	1036.985352	5045.099121
-587.000000	2778.000000	1035.848633	5004.288574
-587.000000	2778.000000	1034.711914	4919.514160
-587.000000	2778.000000	1033.575195	4896.341309
-587.000000	2778.000000	1032.437500	4987.479492
-587.000000	2778.000000	1031.299805	5047.807129
-587.000000	2778.000000	1030.162109	5039.997070
-587.000000	2778.000000	1029.023438	5095.888184
-587.000000	2778.000000	1027.885742	5024.384766
-587.000000	2778.000000	1026.747070	5073.665039
-587.000000	2778.000000	1025.607422	5046.098145
-587.000000	2778.000000	1024.468750	5029.516113
-587.000000	2778.000000	1023.329102	4988.808594
-587.000000	2778.000000	1022.189453	5005.145996
-587.000000	2778.000000	1021.048828	4999.547363
-587.000000	2778.000000	1019.908203	4921.605957
-587.000000	2778.000000	1018.767578	4935.753906
-587.000000	2778.000000	1017.626953	4879.775879
-587.000000	2778.000000	1016.485352	4812.871094
-587.000000	2778.000000	1015.344727	4951.869629
-587.000000	2778.000000	1014.202148	4981.319824
-587.000000	2778.000000	1013.060547	4896.924316
-587.000000	2778.000000	1011.917969	4937.314941
-587.000000	2778.000000	1010.775391	4968.933105
-587.000000	2778.000000	1009.632813	4950.223145
-587.000000	2778.000000	1008.489258	4951.204102
-587.000000	2778.000000	1007.345703	5039.639160
-587.000000	2778.000000	1006.202148	5187.048828
-587.000000	2778.000000	1005.058594	5524.509277
-587.000000	2778.000000	1003.914063	5791.890137
-587.000000	2778.000000	1002.769531	6122.483398
-587.000000	2778.000000	1001.625000	5782.509766
-587.000000	2778.000000	1000.479492	5514.747070
-587.000000	2778.000000	999.333984	5347.516113
-587.000000	2778.000000	998.188477	5130.177246
-587.000000	2778.000000	997.042969	5104.924316
-587.000000	2778.000000	995.896484	5014.250488
-587.000000	2778.000000	994.750000	5060.993652
-587.000000	2778.000000	993.603516	4974.733398
-587.000000	2778.000000	992.456055	5001.846680
-587.000000	2778.000000	991.308594	5033.303223
-587.000000	2778.000000	990.161133	5036.424316
-587.000000	2778.000000	989.012695	5126.657227
-587.000000	2778.000000	987.865234	4986.049316
-587.000000	2778.000000	986.716797	5148.082520
-587.000000	2778.000000	985.567383	5144.640137
-587.000000	2778.000000	984.418945	5189.063965
-587.000000	2778.000000	983.269531	5246.516602
-587.000000	2778.000000	982.119141	5210.430176
-587.000000	2778.000000	980.969727	5233.061523
-587.000000	2778.000000	979.819336	5268.722168
-587.000000	2778.000000	978.668945	5399.977539
-587.000000	2778.000000	977.518555	5628.929688
-587.000000	2778.000000	976.367188	5690.526855
-587.000000	2778.000000	975.215820	5930.148926
-587.000000	2778.000000	974.064453	6241.291016
-587.000000	2778.000000	972.912109	6550.107910
-587.000000	2778.000000	971.760742	6908.676270
-587.000000	2778.000000	970.607422	7538.225586
-587.000000	2778.000000	969.455078	7922.394531
-587.000000	2778.000000	968.301758	8677.133789
-587.000000	2778.000000	967.148438	9487.857422
-587.000000	2778.000000	965.995117	10183.319336
-587.000000	2778.000000	964.840820	11205.588867
-587.000000	2778.000000	963.687500	11867.786133
-587.000000	2778.000000	962.532227	12447.362305
-587.000000	2778.000000	961.377930	13004.998047
-587.000000	2778.000000	960.222656	13144.619141
-587.000000	2778.000000	959.067383	13266.857422
-587.000000	2778.000000	957.912109	12813.579102
-587.000000	2778.000000	956.755859	12403.779297
-587.000000	2778.000000	955.599609	11676.326172
-587.000000	2778.000000	954.443359	11022.732422
-587.000000	2778.000000	953.286133	10367.301758
-587.000000	2778.000000	952.129883	9746.765625
-587.000000	2778.000000	950.972656	9180.541016
-587.000000	2778.000000	949.814453	8627.554688
-587.000000	2778.000000	948.656250	8221.658203
-587.000000	2778.000000	947.498047	7984.327148
-587.000000	2778.000000	946.339844	7350.045898
-587.000000	2778.000000	945.180664	7179.928711
-587.000000	2778.000000	944.022461	7029.306641
-587.000000	2778.000000	942.862305	6637.247559
-587.000000	2778.000000	941.703125	6484.678711
-587.000000	2778.000000	940.542969	6265.371582
-587.000000	2778.000000	939.382813	6138.826660
-587.000000	2778.000000	938.222656	6057.582031
-587.000000	2778.000000	937.061523	5933.304199
-587.000000	2778.000000	935.900391	5710.044434
-587.000000	2778.000000	934.739258	5583.761230
-587.000000	2778.000000	933.577148	5571.597656
-587.000000	2778.000000	932.415039	5626.135742
-587.000000	2778.000000	931.252930	5459.097656
-587.000000	2778.000000	930.090820	5403.963867
-587.000000	2778.000000	928.927734	5310.159180
-587.000000	2778.000000	927.764648	5194.907715
-587.000000	2778.000000	926.600586	5208.639648
-587.000000	2778.000000	925.437500	5048.356934
-587.000000	2778.000000	924.273438	5218.898926
-587.000000	2778.000000	923.108398	5202.551270
-587.000000	2778.000000	921.944336	5138.985840
-587.000000	2778.000000	920.779297	5043.260254
-587.000000	2778.000000	919.614258	5142.825195
-587.000000	2778.000000	918.448242	5068.595215
-587.000000	2778.000000	917.283203	5071.601563
-587.000000	2778.000000	916.116211	5023.151855
-587.000000	2778.000000	914.950195	5021.879883
-587.000000	2778.000000	913.783203	5136.318848
-587.000000	2778.000000	912.616211	5109.309570
-587.000000	2778.000000	911.449219	5101.588379
-587.000000	2778.000000	910.282227	4997.517090
-587.000000	2778.000000	909.114258	4934.169434
-587.000000	2778.000000	907.945313	4941.476563
-587.000000	2778.000000	906.777344	4931.662109
-587.000000	2778.000000	905.608398	4986.022461
-587.000000	2778.000000	904.439453	4956.953613
-587.000000	2778.000000	903.270508	4900.105957
-587.000000	2778.000000	902.100586	4962.979492
-587.000000	2778.000000	900.930664	4871.968262
-587.000000	2778.000000	899.759766	4860.044922
-587.000000	2778.000000	898.589844	4869.483887
-587.000000	2778.000000	897.418945	4870.376465
-587.000000	2778.000000	896.248047	4924.633789
-587.000000	2778.000000	895.076172	4799.597656
-587.000000	2778.000000	893.904297	4909.316406
-587.000000	2778.000000	892.732422	4957.120117
-587.000000	2778.000000	891.559570	4966.514648
-587.000000	2778.000000	890.387695	4888.494141
-587.000000	2778.000000	889.214844	4936.263672
-587.000000	2778.000000	888.041016	4984.008301
-587.000000	2778.000000	886.867188	5018.945313
-587.000000	2778.000000	885.693359	4989.971680
-587.000000	2778.000000	884.519531	5046.179199
-587.000000	2778.000000	883.344727	5040.626465
-587.000000	2778.000000	882.169922	5003.154297
-587.000000	2778.000000	880.995117	4982.720215
-587.000000	2778.000000	879.820313	5202.647461
-587.000000	2778.000000	878.644531	5084.354004
-587.000000	2778.000000	877.468750	5104.304688
-587.000000	2778.000000	876.291992	4909.582520
-587.000000	2778.000000	875.115234	5035.806152
-587.000000	2778.000000	873.938477	5070.620605
-587.000000	2778.000000	872.761719	5056.570801
-587.000000	2778.000000	871.583984	5063.758301
-587.000000	2778.000000	870.406250	5034.856934
-587.000000	2778.000000	869.228516	5173.613281
-587.000000	2778.000000	868.049805	5002.554688
-587.000000	2778.000000	866.871094	5016.107910
-587.000000	2778.000000	865.692383	4942.715820
-587.000000	2778.000000	864.512695	4964.754883
-587.000000	2778.000000	863.333008	4935.917969
-587.000000	2778.000000	862.153320	4998.202637
-587.000000	2778.000000	860.972656	5092.227539
-587.000000	2778.000000	859.791992	4938.433594
-587.000000	2778.000000	858.611328	5057.828613
-587.000000	2778.000000	857.430664	5155.995117
-587.000000	2778.000000	856.249023	5209.672363
-587.000000	2778.000000	855.067383	5157.546875
-587.000000	2778.000000	853.884766	5242.917969
-587.000000	2778.000000	852.703125	5228.867676
-587.000000	2778.000000	851.519531	5128.156738
-587.000000	2778.000000	850.336914	5169.086914
-587.000000	2778.000000	849.153320	5148.725586
-587.000000	2778.000000	847.969727	5103.027344
-587.000000	2778.000000	846.786133	5023.565918
-587.000000	2778.000000	845.601563	5087.698730
-587.000000	2778.000000	844.416992	5105.364746
-587.000000	2778.000000	843.232422	5123.020996
-587.000000	2778.000000	842.046875	5119.572754
-587.000000	2778.000000	840.862305	5092.927246
-587.000000	2778.000000	839.675781	5228.635742
-587.000000	2778.000000	838.490234	5191.435059
-587.000000	2778.000000	837.303711	5244.862793
-587.000000	2778.000000	836.117188	5104.448730
-587.000000	2778.000000	834.929688	5229.477051
-587.000000	2778.000000	833.742188	5209.155273
-587.000000	2778.000000	832.554688	5277.253418
-587.000000	2778.000000	831.367188	5118.033691
-587.000000	2778.000000	830.178711	5154.559082
-587.000000	2778.000000	828.990234	5008.073242
-587.000000	2778.000000	827.800781	4966.802734
-587.000000	2778.000000	826.612305	5024.358887
-587.000000	2778.000000	825.422852	5020.934082
-587.000000	2778.000000	824.232422	5051.128906
-587.000000	2778.000000	823.042969	4961.573242
-587.000000	2778.000000	821.851563	5023.265625
-587.000000	2778.000000	820.661133	4954.757324
-587.000000	2778.000000	819.469727	5026.911621
-587.000000	2778.000000	818.278320	4983.616699
-587.000000	2778.000000	817.086914	5024.255859
-587.000000	2778.000000	815.895508	5104.720703
-587.000000	2778.000000	814.703125	5176.754883
-587.000000	2778.000000	813.509766	5334.691895
-587.000000	2778.000000	812.317383	5161.440918
-587.000000	2778.000000	811.124023	5093.032715
-587.000000	2778.000000	809.929688	5091.682617
-587.000000	2778.000000	808.736328	4908.160645
-587.000000	2778.000000	807.541992	5007.339844
-587.000000	2778.000000	806.347656	4955.783203
-587.000000	2778.000000	805.152344	4881.237793
-587.000000	2778.000000	803.957031	4783.722168
-587.000000	2778.000000	802.761719	4713.442383
-587.000000	2778.000000	801.566406	4825.080078
-587.000000	2778.000000	800.370117	4779.905273
-587.000000	2778.000000	799.172852	4776.542480
-587.000000	2778.000000	797.976563	4746.024902
-587.000000	2778.000000	796.779297	4773.996582
-587.000000	2778.000000	795.582031	4726.791504
-587.000000	2778.000000	794.383789	4798.583984
-587.000000	2778.000000	793.186523	4738.875000
-587.000000	2778.000000	791.987305	4810.623535
-587.000000	2778.000000	790.789063	4778.054199
-587.000000	2778.000000	789.589844	4822.646484
-587.000000	2778.000000	788.390625	4637.923828
-587.000000	2778.000000	787.191406	4753.380371
-587.000000	2778.000000	785.991211	4689.606934
-587.000000	2778.000000	784.791016	4798.737305
-587.000000	2778.000000	783.589844	4766.217285
-587.000000	2778.000000	782.388672	4798.245117
-587.000000	2778.000000	781.187500	4707.469238
-587.000000	2778.000000	779.986328	4870.568359
-587.000000	2778.000000	778.784180	4702.860352
-587.000000	2778.000000	777.582031	4574.750488
-587.000000	2778.000000	776.379883	4783.485840
-587.000000	2778.000000	775.176758	4715.692383
-587.000000	2778.000000	773.973633	4666.634277
-587.000000	2778.000000	772.769531	4717.306641
-587.000000	2778.000000	771.566406	4707.728516
-587.000000	2778.000000	770.361328	4777.044922
-587.000000	2778.000000	769.157227	4674.055664
-587.000000	2778.000000	767.952148	4834.640137
-587.000000	2778.000000	766.747070	4735.837402
-587.000000	2778.000000	765.541992	4688.933105
-587.000000	2778.000000	764.335938	4718.763672
-587.000000	2778.000000	763.129883	4823.195313
-587.000000	2778.000000	761.922852	4790.807129
-587.000000	2778.000000	760.716797	4669.357422
-587.000000	2778.000000	759.509766	4701.228027
-587.000000	2778.000000	758.301758	4728.939941
-587.000000	2778.000000	757.093750	4795.963379
-587.000000	2778.000000	755.885742	4763.621582
-587.000000	2778.000000	754.677734	4764.396484
-587.000000	2778.000000	753.468750	4750.692383
-587.000000	2778.000000	752.259766	4708.047852
-587.000000	2778.000000	751.049805	4731.571777
-587.000000	2778.000000	749.840820	4817.078125
-587.000000	2778.000000	748.629883	4704.204102
-587.000000	2778.000000	747.419922	4835.108398
-587.000000	2778.000000	746.208984	4763.585449
-587.000000	2778.000000	744.998047	4865.500000
-587.000000	2778.000000	743.787109	4841.471191
-587.000000	2778.000000	742.575195	4776.191406
-587.000000	2778.000000	741.363281	4768.698730
-587.000000	2778.000000	740.150391	4895.240723
-587.000000	2778.000000	738.937500	4768.152832
-587.000000	2778.000000	737.724609	4836.917969
-587.000000	2778.000000	736.511719	4878.860840
-587.000000	2778.000000	735.297852	4718.922363
-587.000000	2778.000000	734.083984	4818.529785
-587.000000	2778.000000	732.869141	4883.084473
-587.000000	2778.000000	731.654297	4822.060547
-587.000000	2778.000000	730.439453	4781.644043
-587.000000	2778.000000	729.223633	4852.323730
-587.000000	2778.000000	728.007813	4809.862305
-587.000000	2778.000000	726.791992	4787.981445
-587.000000	2778.000000	725.576172	4733.228027
-587.000000	2778.000000	724.359375	4793.565430
