#X		#Y		#Wave		#Intensity
503.000000	-2345.300000	1819.745117	2291.590576
503.000000	-2345.300000	1818.780273	2255.298340
503.000000	-2345.300000	1817.815430	2252.213379
503.000000	-2345.300000	1816.850586	2225.809082
503.000000	-2345.300000	1815.885742	2318.583984
503.000000	-2345.300000	1814.920898	2276.636719
503.000000	-2345.300000	1813.955078	2286.497070
503.000000	-2345.300000	1812.989258	2249.752930
503.000000	-2345.300000	1812.023438	2368.324951
503.000000	-2345.300000	1811.057617	2328.991211
503.000000	-2345.300000	1810.091797	2300.023682
503.000000	-2345.300000	1809.125000	2312.454834
503.000000	-2345.300000	1808.158203	2293.847900
503.000000	-2345.300000	1807.191406	2378.669189
503.000000	-2345.300000	1806.223633	2305.771973
503.000000	-2345.300000	1805.256836	2431.904053
503.000000	-2345.300000	1804.289063	2371.946045
503.000000	-2345.300000	1803.321289	2291.348389
503.000000	-2345.300000	1802.353516	2277.935547
503.000000	-2345.300000	1801.384766	2228.378906
503.000000	-2345.300000	1800.416992	2328.574951
503.000000	-2345.300000	1799.448242	2410.660156
503.000000	-2345.300000	1798.479492	2309.498291
503.000000	-2345.300000	1797.510742	2401.871582
503.000000	-2345.300000	1796.541016	2347.183105
503.000000	-2345.300000	1795.571289	2377.617920
503.000000	-2345.300000	1794.601563	2423.508545
503.000000	-2345.300000	1793.631836	2358.540527
503.000000	-2345.300000	1792.662109	2417.300781
503.000000	-2345.300000	1791.691406	2367.821777
503.000000	-2345.300000	1790.721680	2377.611084
503.000000	-2345.300000	1789.750977	2330.737549
503.000000	-2345.300000	1788.779297	2451.249023
503.000000	-2345.300000	1787.808594	2327.151367
503.000000	-2345.300000	1786.836914	2342.088623
503.000000	-2345.300000	1785.865234	2454.799561
503.000000	-2345.300000	1784.893555	2402.814941
503.000000	-2345.300000	1783.921875	2412.582031
503.000000	-2345.300000	1782.949219	2337.485596
503.000000	-2345.300000	1781.977539	2370.401123
503.000000	-2345.300000	1781.004883	2449.568848
503.000000	-2345.300000	1780.031250	2436.188965
503.000000	-2345.300000	1779.058594	2407.399414
503.000000	-2345.300000	1778.084961	2424.858887
503.000000	-2345.300000	1777.112305	2467.992188
503.000000	-2345.300000	1776.138672	2375.024658
503.000000	-2345.300000	1775.164063	2425.851318
503.000000	-2345.300000	1774.190430	2522.852539
503.000000	-2345.300000	1773.215820	2432.499268
503.000000	-2345.300000	1772.241211	2442.234619
503.000000	-2345.300000	1771.266602	2513.521240
503.000000	-2345.300000	1770.291992	2479.642334
503.000000	-2345.300000	1769.316406	2427.832031
503.000000	-2345.300000	1768.340820	2434.996826
503.000000	-2345.300000	1767.365234	2424.220215
503.000000	-2345.300000	1766.389648	2554.360840
503.000000	-2345.300000	1765.414063	2487.210205
503.000000	-2345.300000	1764.437500	2535.330811
503.000000	-2345.300000	1763.460938	2516.860840
503.000000	-2345.300000	1762.484375	2439.522461
503.000000	-2345.300000	1761.507813	2492.740723
503.000000	-2345.300000	1760.531250	2553.612305
503.000000	-2345.300000	1759.553711	2555.619629
503.000000	-2345.300000	1758.576172	2557.625977
503.000000	-2345.300000	1757.598633	2631.229492
503.000000	-2345.300000	1756.620117	2479.827393
503.000000	-2345.300000	1755.642578	2481.848633
503.000000	-2345.300000	1754.664063	2593.752197
503.000000	-2345.300000	1753.685547	2570.199463
503.000000	-2345.300000	1752.707031	2495.570557
503.000000	-2345.300000	1751.727539	2525.677979
503.000000	-2345.300000	1750.749023	2565.985596
503.000000	-2345.300000	1749.769531	2537.353760
503.000000	-2345.300000	1748.790039	2598.058350
503.000000	-2345.300000	1747.809570	2633.220947
503.000000	-2345.300000	1746.830078	2563.776855
503.000000	-2345.300000	1745.849609	2522.417480
503.000000	-2345.300000	1744.869141	2623.871826
503.000000	-2345.300000	1743.888672	2653.899902
503.000000	-2345.300000	1742.908203	2592.157227
503.000000	-2345.300000	1741.926758	2637.468994
503.000000	-2345.300000	1740.945313	2705.690674
503.000000	-2345.300000	1739.963867	2661.806885
503.000000	-2345.300000	1738.982422	2676.514648
503.000000	-2345.300000	1738.000000	2607.195068
503.000000	-2345.300000	1737.018555	2759.367676
503.000000	-2345.300000	1736.036133	2684.969971
503.000000	-2345.300000	1735.053711	2725.104492
503.000000	-2345.300000	1734.070313	2709.255859
503.000000	-2345.300000	1733.087891	2708.674316
503.000000	-2345.300000	1732.104492	2853.032959
503.000000	-2345.300000	1731.121094	2870.216553
503.000000	-2345.300000	1730.137695	2823.849609
503.000000	-2345.300000	1729.154297	2810.537842
503.000000	-2345.300000	1728.169922	2911.560303
503.000000	-2345.300000	1727.185547	2809.332275
503.000000	-2345.300000	1726.201172	2882.376465
503.000000	-2345.300000	1725.216797	2955.389404
503.000000	-2345.300000	1724.231445	2957.294189
503.000000	-2345.300000	1723.247070	2895.750488
503.000000	-2345.300000	1722.261719	2953.489258
503.000000	-2345.300000	1721.276367	2924.951416
503.000000	-2345.300000	1720.290039	3043.529541
503.000000	-2345.300000	1719.304688	3042.877686
503.000000	-2345.300000	1718.318359	2953.494385
503.000000	-2345.300000	1717.332031	3094.802002
503.000000	-2345.300000	1716.345703	2975.036377
503.000000	-2345.300000	1715.358398	3004.802246
503.000000	-2345.300000	1714.372070	2943.366699
503.000000	-2345.300000	1713.384766	2881.957275
503.000000	-2345.300000	1712.397461	2985.149902
503.000000	-2345.300000	1711.409180	2911.100830
503.000000	-2345.300000	1710.421875	3042.082031
503.000000	-2345.300000	1709.433594	2998.416260
503.000000	-2345.300000	1708.445313	3030.661865
503.000000	-2345.300000	1707.457031	3126.124268
503.000000	-2345.300000	1706.468750	3011.665039
503.000000	-2345.300000	1705.479492	2975.627197
503.000000	-2345.300000	1704.490234	2995.211914
503.000000	-2345.300000	1703.500977	3131.033203
503.000000	-2345.300000	1702.511719	3168.261963
503.000000	-2345.300000	1701.521484	3200.422852
503.000000	-2345.300000	1700.532227	3101.246826
503.000000	-2345.300000	1699.541992	3148.557373
503.000000	-2345.300000	1698.551758	3150.409180
503.000000	-2345.300000	1697.560547	3222.927490
503.000000	-2345.300000	1696.570313	3214.669434
503.000000	-2345.300000	1695.579102	3219.028564
503.000000	-2345.300000	1694.587891	3311.663086
503.000000	-2345.300000	1693.596680	3200.002441
503.000000	-2345.300000	1692.604492	3285.038086
503.000000	-2345.300000	1691.613281	3312.063721
503.000000	-2345.300000	1690.621094	3334.037354
503.000000	-2345.300000	1689.628906	3444.185059
503.000000	-2345.300000	1688.636719	3347.728760
503.000000	-2345.300000	1687.643555	3412.494385
503.000000	-2345.300000	1686.650391	3343.782959
503.000000	-2345.300000	1685.657227	3451.316895
503.000000	-2345.300000	1684.664063	3513.501709
503.000000	-2345.300000	1683.670898	3417.133301
503.000000	-2345.300000	1682.676758	3504.456543
503.000000	-2345.300000	1681.683594	3425.737549
503.000000	-2345.300000	1680.689453	3575.888672
503.000000	-2345.300000	1679.694336	3489.645264
503.000000	-2345.300000	1678.700195	3529.119629
503.000000	-2345.300000	1677.705078	3470.566650
503.000000	-2345.300000	1676.709961	3469.827148
503.000000	-2345.300000	1675.714844	3614.784668
503.000000	-2345.300000	1674.719727	3485.929443
503.000000	-2345.300000	1673.723633	3552.982422
503.000000	-2345.300000	1672.728516	3532.142334
503.000000	-2345.300000	1671.732422	3636.804932
503.000000	-2345.300000	1670.735352	3548.203613
503.000000	-2345.300000	1669.739258	3615.186035
503.000000	-2345.300000	1668.742188	3616.924561
503.000000	-2345.300000	1667.746094	3628.693359
503.000000	-2345.300000	1666.748047	3615.385010
503.000000	-2345.300000	1665.750977	3504.322021
503.000000	-2345.300000	1664.753906	3591.291016
503.000000	-2345.300000	1663.755859	3510.347656
503.000000	-2345.300000	1662.757813	3582.247559
503.000000	-2345.300000	1661.759766	3503.844971
503.000000	-2345.300000	1660.761719	3508.107422
503.000000	-2345.300000	1659.762695	3534.899414
503.000000	-2345.300000	1658.763672	3559.176758
503.000000	-2345.300000	1657.764648	3475.840576
503.000000	-2345.300000	1656.765625	3517.633057
503.000000	-2345.300000	1655.765625	3461.855713
503.000000	-2345.300000	1654.766602	3536.143799
503.000000	-2345.300000	1653.766602	3492.887207
503.000000	-2345.300000	1652.766602	3544.639160
503.000000	-2345.300000	1651.765625	3471.408447
503.000000	-2345.300000	1650.765625	3510.649414
503.000000	-2345.300000	1649.764648	3522.394043
503.000000	-2345.300000	1648.763672	3494.171631
503.000000	-2345.300000	1647.762695	3495.926025
503.000000	-2345.300000	1646.761719	3550.107422
503.000000	-2345.300000	1645.759766	3601.769531
503.000000	-2345.300000	1644.757813	3620.968262
503.000000	-2345.300000	1643.755859	3807.321533
503.000000	-2345.300000	1642.753906	3861.390381
503.000000	-2345.300000	1641.750977	3890.496826
503.000000	-2345.300000	1640.749023	3917.097656
503.000000	-2345.300000	1639.746094	3933.715576
503.000000	-2345.300000	1638.742188	3920.418213
503.000000	-2345.300000	1637.739258	3852.307373
503.000000	-2345.300000	1636.735352	3893.840576
503.000000	-2345.300000	1635.732422	3701.227295
503.000000	-2345.300000	1634.728516	3720.363037
503.000000	-2345.300000	1633.723633	3724.552246
503.000000	-2345.300000	1632.719727	3621.706543
503.000000	-2345.300000	1631.714844	3623.426270
503.000000	-2345.300000	1630.709961	3453.466797
503.000000	-2345.300000	1629.705078	3450.246094
503.000000	-2345.300000	1628.700195	3419.669189
503.000000	-2345.300000	1627.694336	3416.456787
503.000000	-2345.300000	1626.689453	3338.666260
503.000000	-2345.300000	1625.683594	3332.986816
503.000000	-2345.300000	1624.676758	3262.701660
503.000000	-2345.300000	1623.670898	3276.915527
503.000000	-2345.300000	1622.664063	3224.058838
503.000000	-2345.300000	1621.657227	3213.441162
503.000000	-2345.300000	1620.650391	3185.448242
503.000000	-2345.300000	1619.643555	3279.099121
503.000000	-2345.300000	1618.635742	3285.848633
503.000000	-2345.300000	1617.628906	3225.601807
503.000000	-2345.300000	1616.621094	3274.531494
503.000000	-2345.300000	1615.613281	3226.713379
503.000000	-2345.300000	1614.604492	3330.174072
503.000000	-2345.300000	1613.596680	3309.634521
503.000000	-2345.300000	1612.587891	3365.940186
503.000000	-2345.300000	1611.579102	3347.879639
503.000000	-2345.300000	1610.569336	3399.197754
503.000000	-2345.300000	1609.560547	3314.257813
503.000000	-2345.300000	1608.550781	3246.689453
503.000000	-2345.300000	1607.541016	3320.279785
503.000000	-2345.300000	1606.531250	3339.379150
503.000000	-2345.300000	1605.521484	3331.246094
503.000000	-2345.300000	1604.510742	3298.372314
503.000000	-2345.300000	1603.500000	3285.303223
503.000000	-2345.300000	1602.489258	3418.167236
503.000000	-2345.300000	1601.478516	3424.860596
503.000000	-2345.300000	1600.467773	3451.329590
503.000000	-2345.300000	1599.456055	3324.537109
503.000000	-2345.300000	1598.444336	3239.809326
503.000000	-2345.300000	1597.432617	3503.489990
503.000000	-2345.300000	1596.419922	3260.666992
503.000000	-2345.300000	1595.408203	3252.566406
503.000000	-2345.300000	1594.395508	3232.123535
503.000000	-2345.300000	1593.382813	3251.187012
503.000000	-2345.300000	1592.370117	3248.029297
503.000000	-2345.300000	1591.356445	3257.210938
503.000000	-2345.300000	1590.343750	3278.723633
503.000000	-2345.300000	1589.330078	3319.959473
503.000000	-2345.300000	1588.316406	3390.769775
503.000000	-2345.300000	1587.301758	3256.914063
503.000000	-2345.300000	1586.288086	3362.217041
503.000000	-2345.300000	1585.273438	3260.461670
503.000000	-2345.300000	1584.258789	3309.048828
503.000000	-2345.300000	1583.244141	3273.859375
503.000000	-2345.300000	1582.228516	3285.479492
503.000000	-2345.300000	1581.213867	3272.470947
503.000000	-2345.300000	1580.198242	3338.246338
503.000000	-2345.300000	1579.182617	3300.618652
503.000000	-2345.300000	1578.166016	3334.369873
503.000000	-2345.300000	1577.150391	3321.361328
503.000000	-2345.300000	1576.133789	3264.082764
503.000000	-2345.300000	1575.117188	3256.012695
503.000000	-2345.300000	1574.100586	3302.037598
503.000000	-2345.300000	1573.083984	3264.464600
503.000000	-2345.300000	1572.066406	3300.636963
503.000000	-2345.300000	1571.048828	3290.108398
503.000000	-2345.300000	1570.031250	3336.086182
503.000000	-2345.300000	1569.013672	3305.905518
503.000000	-2345.300000	1567.995117	3248.726074
503.000000	-2345.300000	1566.976563	3218.576416
503.000000	-2345.300000	1565.958008	3279.256836
503.000000	-2345.300000	1564.939453	3303.101563
503.000000	-2345.300000	1563.920898	3263.145020
503.000000	-2345.300000	1562.901367	3316.417969
503.000000	-2345.300000	1561.881836	3347.596436
503.000000	-2345.300000	1560.862305	3253.712891
503.000000	-2345.300000	1559.842773	3402.558594
503.000000	-2345.300000	1558.822266	3298.899414
503.000000	-2345.300000	1557.802734	3305.550537
503.000000	-2345.300000	1556.782227	3346.496582
503.000000	-2345.300000	1555.761719	3335.989258
503.000000	-2345.300000	1554.740234	3342.627930
503.000000	-2345.300000	1553.719727	3310.090820
503.000000	-2345.300000	1552.698242	3306.940674
503.000000	-2345.300000	1551.676758	3394.340088
503.000000	-2345.300000	1550.654297	3410.746826
503.000000	-2345.300000	1549.632813	3365.991211
503.000000	-2345.300000	1548.610352	3372.613770
503.000000	-2345.300000	1547.587891	3362.117432
503.000000	-2345.300000	1546.565430	3393.184326
503.000000	-2345.300000	1545.542969	3265.368896
503.000000	-2345.300000	1544.519531	3403.961914
503.000000	-2345.300000	1543.496094	3337.275635
503.000000	-2345.300000	1542.472656	3292.600830
503.000000	-2345.300000	1541.449219	3392.026367
503.000000	-2345.300000	1540.424805	3308.293701
503.000000	-2345.300000	1539.400391	3312.473389
503.000000	-2345.300000	1538.375977	3377.663818
503.000000	-2345.300000	1537.351563	3467.226074
503.000000	-2345.300000	1536.327148	3415.260986
503.000000	-2345.300000	1535.301758	3348.683838
503.000000	-2345.300000	1534.276367	3391.864502
503.000000	-2345.300000	1533.250977	3383.830566
503.000000	-2345.300000	1532.225586	3480.607666
503.000000	-2345.300000	1531.199219	3482.305420
503.000000	-2345.300000	1530.173828	3430.401855
503.000000	-2345.300000	1529.147461	3393.135498
503.000000	-2345.300000	1528.121094	3355.884766
503.000000	-2345.300000	1527.093750	3418.476807
503.000000	-2345.300000	1526.067383	3274.126953
503.000000	-2345.300000	1525.040039	3419.458008
503.000000	-2345.300000	1524.012695	3355.466553
503.000000	-2345.300000	1522.984375	3437.466797
503.000000	-2345.300000	1521.957031	3373.498291
503.000000	-2345.300000	1520.928711	3324.147217
503.000000	-2345.300000	1519.900391	3386.651611
503.000000	-2345.300000	1518.872070	3412.668945
503.000000	-2345.300000	1517.842773	3419.234131
503.000000	-2345.300000	1516.814453	3365.054932
503.000000	-2345.300000	1515.785156	3383.772461
503.000000	-2345.300000	1514.755859	3446.196777
503.000000	-2345.300000	1513.725586	3418.754883
503.000000	-2345.300000	1512.696289	3512.703369
503.000000	-2345.300000	1511.666016	3460.988037
503.000000	-2345.300000	1510.635742	3445.692383
503.000000	-2345.300000	1509.605469	3340.640381
503.000000	-2345.300000	1508.574219	3546.098145
503.000000	-2345.300000	1507.543945	3489.568848
503.000000	-2345.300000	1506.512695	3510.646484
503.000000	-2345.300000	1505.481445	3568.074707
503.000000	-2345.300000	1504.449219	3455.836670
503.000000	-2345.300000	1503.417969	3372.721436
503.000000	-2345.300000	1502.385742	3444.676025
503.000000	-2345.300000	1501.353516	3473.005615
503.000000	-2345.300000	1500.321289	3523.115479
503.000000	-2345.300000	1499.288086	3604.674805
503.000000	-2345.300000	1498.255859	3632.951660
503.000000	-2345.300000	1497.222656	3508.766113
503.000000	-2345.300000	1496.189453	3578.179199
503.000000	-2345.300000	1495.155273	3591.929932
503.000000	-2345.300000	1494.122070	3528.289307
503.000000	-2345.300000	1493.087891	3546.879883
503.000000	-2345.300000	1492.053711	3623.476563
503.000000	-2345.300000	1491.018555	3586.453369
503.000000	-2345.300000	1489.984375	3626.764893
503.000000	-2345.300000	1488.949219	3667.059326
503.000000	-2345.300000	1487.914063	3649.371338
503.000000	-2345.300000	1486.878906	3638.934570
503.000000	-2345.300000	1485.843750	3715.412354
503.000000	-2345.300000	1484.807617	3801.511963
503.000000	-2345.300000	1483.771484	3721.067627
503.000000	-2345.300000	1482.735352	3831.254883
503.000000	-2345.300000	1481.699219	3695.359375
503.000000	-2345.300000	1480.662109	3863.383301
503.000000	-2345.300000	1479.625000	3766.115723
503.000000	-2345.300000	1478.587891	3873.787842
503.000000	-2345.300000	1477.550781	3901.882080
503.000000	-2345.300000	1476.513672	3782.981689
503.000000	-2345.300000	1475.475586	4042.349365
503.000000	-2345.300000	1474.437500	3962.005615
503.000000	-2345.300000	1473.399414	4006.911865
503.000000	-2345.300000	1472.361328	4083.095947
503.000000	-2345.300000	1471.322266	4108.700684
503.000000	-2345.300000	1470.283203	4172.797852
503.000000	-2345.300000	1469.244141	4191.154297
503.000000	-2345.300000	1468.205078	4240.772949
503.000000	-2345.300000	1467.166016	4235.057129
503.000000	-2345.300000	1466.125977	4385.629395
503.000000	-2345.300000	1465.085938	4488.059570
503.000000	-2345.300000	1464.045898	4460.663574
503.000000	-2345.300000	1463.004883	4435.681641
503.000000	-2345.300000	1461.964844	4475.573242
503.000000	-2345.300000	1460.923828	4450.598145
503.000000	-2345.300000	1459.882813	4500.074219
503.000000	-2345.300000	1458.841797	4616.750977
503.000000	-2345.300000	1457.799805	4478.947266
503.000000	-2345.300000	1456.757813	4569.180664
503.000000	-2345.300000	1455.715820	4647.378906
503.000000	-2345.300000	1454.673828	4586.415527
503.000000	-2345.300000	1453.631836	4690.956543
503.000000	-2345.300000	1452.588867	4603.634766
503.000000	-2345.300000	1451.545898	4645.798828
503.000000	-2345.300000	1450.502930	4747.862793
503.000000	-2345.300000	1449.458984	4670.167969
503.000000	-2345.300000	1448.416016	4729.059570
503.000000	-2345.300000	1447.372070	4610.684082
503.000000	-2345.300000	1446.328125	4528.278320
503.000000	-2345.300000	1445.284180	4462.666504
503.000000	-2345.300000	1444.239258	4531.125488
503.000000	-2345.300000	1443.194336	4537.333496
503.000000	-2345.300000	1442.150391	4545.931641
503.000000	-2345.300000	1441.104492	4461.234375
503.000000	-2345.300000	1440.059570	4481.801758
503.000000	-2345.300000	1439.013672	4421.064453
503.000000	-2345.300000	1437.967773	4338.837891
503.000000	-2345.300000	1436.921875	4380.927734
503.000000	-2345.300000	1435.875977	4284.406738
503.000000	-2345.300000	1434.829102	4271.542480
503.000000	-2345.300000	1433.783203	4301.676270
503.000000	-2345.300000	1432.735352	4217.173828
503.000000	-2345.300000	1431.688477	4166.131836
503.000000	-2345.300000	1430.641602	4298.906738
503.000000	-2345.300000	1429.593750	4212.071777
503.000000	-2345.300000	1428.545898	4306.604004
503.000000	-2345.300000	1427.498047	4119.616699
503.000000	-2345.300000	1426.449219	4242.746582
503.000000	-2345.300000	1425.401367	4363.438965
503.000000	-2345.300000	1424.352539	4319.591309
503.000000	-2345.300000	1423.303711	4356.796875
503.000000	-2345.300000	1422.253906	4196.208496
503.000000	-2345.300000	1421.205078	4209.600586
503.000000	-2345.300000	1420.155273	4170.585938
503.000000	-2345.300000	1419.105469	4193.501953
503.000000	-2345.300000	1418.055664	4090.225098
503.000000	-2345.300000	1417.004883	4239.303711
503.000000	-2345.300000	1415.955078	4162.238281
503.000000	-2345.300000	1414.904297	4239.857910
503.000000	-2345.300000	1413.852539	4198.506348
503.000000	-2345.300000	1412.801758	4242.789063
503.000000	-2345.300000	1411.750000	4294.185547
503.000000	-2345.300000	1410.698242	4366.954590
503.000000	-2345.300000	1409.646484	4363.636719
503.000000	-2345.300000	1408.594727	4308.043945
503.000000	-2345.300000	1407.541992	4345.126465
503.000000	-2345.300000	1406.490234	4462.948730
503.000000	-2345.300000	1405.437500	4440.614258
503.000000	-2345.300000	1404.383789	4522.751953
503.000000	-2345.300000	1403.331055	4509.908203
503.000000	-2345.300000	1402.277344	4513.681641
503.000000	-2345.300000	1401.223633	4410.685547
503.000000	-2345.300000	1400.169922	4333.826660
503.000000	-2345.300000	1399.115234	4275.973145
503.000000	-2345.300000	1398.061523	4422.056641
503.000000	-2345.300000	1397.006836	4328.649902
503.000000	-2345.300000	1395.952148	4375.116211
503.000000	-2345.300000	1394.896484	4279.389160
503.000000	-2345.300000	1393.841797	4254.774414
503.000000	-2345.300000	1392.786133	4147.271973
503.000000	-2345.300000	1391.730469	4236.359375
503.000000	-2345.300000	1390.673828	4304.101074
503.000000	-2345.300000	1389.618164	4357.610840
503.000000	-2345.300000	1388.561523	4280.941406
503.000000	-2345.300000	1387.504883	4270.551758
503.000000	-2345.300000	1386.448242	4227.049805
503.000000	-2345.300000	1385.390625	4240.324707
503.000000	-2345.300000	1384.333984	4374.178711
503.000000	-2345.300000	1383.276367	4233.761230
503.000000	-2345.300000	1382.217773	4251.751953
503.000000	-2345.300000	1381.160156	4342.983398
503.000000	-2345.300000	1380.101563	4351.492188
503.000000	-2345.300000	1379.042969	4381.253418
503.000000	-2345.300000	1377.984375	4434.615234
503.000000	-2345.300000	1376.925781	4391.158691
503.000000	-2345.300000	1375.866211	4191.939453
503.000000	-2345.300000	1374.807617	4224.067871
503.000000	-2345.300000	1373.747070	4277.415527
503.000000	-2345.300000	1372.687500	4203.365234
503.000000	-2345.300000	1371.627930	4303.858887
503.000000	-2345.300000	1370.567383	4246.338379
503.000000	-2345.300000	1369.506836	4146.412109
503.000000	-2345.300000	1368.446289	4183.219727
503.000000	-2345.300000	1367.384766	4151.680176
503.000000	-2345.300000	1366.323242	4138.999512
503.000000	-2345.300000	1365.261719	4156.941895
503.000000	-2345.300000	1364.200195	4120.718262
503.000000	-2345.300000	1363.138672	4119.822266
503.000000	-2345.300000	1362.076172	4123.633789
503.000000	-2345.300000	1361.013672	4240.395508
503.000000	-2345.300000	1359.951172	4098.313965
503.000000	-2345.300000	1358.888672	4156.225586
503.000000	-2345.300000	1357.825195	4174.134277
503.000000	-2345.300000	1356.761719	4149.714355
503.000000	-2345.300000	1355.698242	4294.548340
503.000000	-2345.300000	1354.634766	4100.905762
503.000000	-2345.300000	1353.570313	4196.345215
503.000000	-2345.300000	1352.506836	4030.996338
503.000000	-2345.300000	1351.442383	4213.305176
503.000000	-2345.300000	1350.376953	4318.048828
503.000000	-2345.300000	1349.312500	4272.503906
503.000000	-2345.300000	1348.247070	4215.244141
503.000000	-2345.300000	1347.181641	4219.017578
503.000000	-2345.300000	1346.116211	4387.008789
503.000000	-2345.300000	1345.049805	4407.160645
503.000000	-2345.300000	1343.984375	4321.779785
503.000000	-2345.300000	1342.917969	4346.625000
503.000000	-2345.300000	1341.851563	4439.433594
503.000000	-2345.300000	1340.784180	4403.312500
503.000000	-2345.300000	1339.716797	4397.664551
503.000000	-2345.300000	1338.650391	4281.925293
503.000000	-2345.300000	1337.582031	4250.544434
503.000000	-2345.300000	1336.514648	4390.098145
503.000000	-2345.300000	1335.446289	4363.388672
503.000000	-2345.300000	1334.378906	4226.692871
503.000000	-2345.300000	1333.310547	4471.452148
503.000000	-2345.300000	1332.241211	4507.902832
503.000000	-2345.300000	1331.172852	4418.040527
503.000000	-2345.300000	1330.103516	4510.605469
503.000000	-2345.300000	1329.034180	4388.052246
503.000000	-2345.300000	1327.964844	4410.463379
503.000000	-2345.300000	1326.894531	4402.486816
503.000000	-2345.300000	1325.824219	4560.387695
503.000000	-2345.300000	1324.753906	4533.694336
503.000000	-2345.300000	1323.683594	4364.562500
503.000000	-2345.300000	1322.612305	4414.969238
503.000000	-2345.300000	1321.541992	4332.302734
503.000000	-2345.300000	1320.470703	4364.023926
503.000000	-2345.300000	1319.399414	4426.062012
503.000000	-2345.300000	1318.327148	4462.412598
503.000000	-2345.300000	1317.254883	4435.778809
503.000000	-2345.300000	1316.182617	4439.467285
503.000000	-2345.300000	1315.110352	4398.862305
503.000000	-2345.300000	1314.038086	4416.540039
503.000000	-2345.300000	1312.964844	4462.171387
503.000000	-2345.300000	1311.891602	4414.597656
503.000000	-2345.300000	1310.818359	4320.462891
503.000000	-2345.300000	1309.745117	4526.755371
503.000000	-2345.300000	1308.670898	4334.857422
503.000000	-2345.300000	1307.596680	4352.523438
503.000000	-2345.300000	1306.522461	4346.910645
503.000000	-2345.300000	1305.448242	4357.585449
503.000000	-2345.300000	1304.373047	4465.948242
503.000000	-2345.300000	1303.297852	4444.034180
503.000000	-2345.300000	1302.222656	4315.179688
503.000000	-2345.300000	1301.147461	4442.074219
503.000000	-2345.300000	1300.071289	4420.178711
503.000000	-2345.300000	1298.996094	4467.995605
503.000000	-2345.300000	1297.919922	4485.592773
503.000000	-2345.300000	1296.842773	4410.284668
503.000000	-2345.300000	1295.766602	4506.831055
503.000000	-2345.300000	1294.689453	4554.584473
503.000000	-2345.300000	1293.612305	4393.437012
503.000000	-2345.300000	1292.535156	4536.328613
503.000000	-2345.300000	1291.457031	4593.322266
503.000000	-2345.300000	1290.378906	4594.625488
503.000000	-2345.300000	1289.300781	4449.841309
503.000000	-2345.300000	1288.222656	4499.859863
503.000000	-2345.300000	1287.144531	4573.033203
503.000000	-2345.300000	1286.065430	4599.828125
503.000000	-2345.300000	1284.986328	4582.591797
503.000000	-2345.300000	1283.907227	4604.739258
503.000000	-2345.300000	1282.827148	4555.087891
503.000000	-2345.300000	1281.748047	4618.904785
503.000000	-2345.300000	1280.667969	4724.357910
503.000000	-2345.300000	1279.586914	4621.484375
503.000000	-2345.300000	1278.506836	4669.046875
503.000000	-2345.300000	1277.425781	4716.587402
503.000000	-2345.300000	1276.344727	4676.224609
503.000000	-2345.300000	1275.263672	4700.620117
503.000000	-2345.300000	1274.182617	4648.719727
503.000000	-2345.300000	1273.100586	4777.109863
503.000000	-2345.300000	1272.018555	4752.941895
503.000000	-2345.300000	1270.936523	4805.017578
503.000000	-2345.300000	1269.853516	4783.162598
503.000000	-2345.300000	1268.771484	4710.516602
503.000000	-2345.300000	1267.688477	4688.691406
503.000000	-2345.300000	1266.605469	4893.063965
503.000000	-2345.300000	1265.521484	4691.218750
503.000000	-2345.300000	1264.438477	4708.629883
503.000000	-2345.300000	1263.354492	4804.454102
503.000000	-2345.300000	1262.270508	4886.398926
503.000000	-2345.300000	1261.185547	4786.173828
503.000000	-2345.300000	1260.101563	4743.617188
503.000000	-2345.300000	1259.016602	4834.736816
503.000000	-2345.300000	1257.930664	4898.167969
503.000000	-2345.300000	1256.845703	4917.805176
503.000000	-2345.300000	1255.759766	4856.831543
503.000000	-2345.300000	1254.674805	5042.240234
503.000000	-2345.300000	1253.587891	4976.661133
503.000000	-2345.300000	1252.501953	4989.356934
503.000000	-2345.300000	1251.415039	4861.694336
503.000000	-2345.300000	1250.329102	5033.132324
503.000000	-2345.300000	1249.241211	5114.799805
503.000000	-2345.300000	1248.154297	4987.193359
503.000000	-2345.300000	1247.066406	5002.167969
503.000000	-2345.300000	1245.979492	5083.785645
503.000000	-2345.300000	1244.890625	5084.944824
503.000000	-2345.300000	1243.802734	5017.185059
503.000000	-2345.300000	1242.713867	5080.369141
503.000000	-2345.300000	1241.625000	5067.748535
503.000000	-2345.300000	1240.536133	5011.515137
503.000000	-2345.300000	1239.447266	4966.782227
503.000000	-2345.300000	1238.357422	4908.300293
503.000000	-2345.300000	1237.267578	4916.375000
503.000000	-2345.300000	1236.177734	4933.620117
503.000000	-2345.300000	1235.087891	4870.597168
503.000000	-2345.300000	1233.997070	4894.721191
503.000000	-2345.300000	1232.906250	4804.229004
503.000000	-2345.300000	1231.815430	4910.852539
503.000000	-2345.300000	1230.724609	4795.194824
503.000000	-2345.300000	1229.632813	4849.088867
503.000000	-2345.300000	1228.541016	4731.205566
503.000000	-2345.300000	1227.449219	4691.218262
503.000000	-2345.300000	1226.357422	4793.166504
503.000000	-2345.300000	1225.264648	4700.546875
503.000000	-2345.300000	1224.171875	4674.319824
503.000000	-2345.300000	1223.079102	4600.067383
503.000000	-2345.300000	1221.986328	4569.299316
503.000000	-2345.300000	1220.892578	4636.860840
503.000000	-2345.300000	1219.798828	4681.532227
503.000000	-2345.300000	1218.705078	4682.760742
503.000000	-2345.300000	1217.611328	4711.406250
503.000000	-2345.300000	1216.516602	4644.095215
503.000000	-2345.300000	1215.421875	4638.478027
503.000000	-2345.300000	1214.327148	4578.062500
503.000000	-2345.300000	1213.231445	4661.490723
503.000000	-2345.300000	1212.136719	4601.096680
503.000000	-2345.300000	1211.041016	4597.773438
503.000000	-2345.300000	1209.945313	4656.044922
503.000000	-2345.300000	1208.848633	4677.797852
503.000000	-2345.300000	1207.752930	4647.095215
503.000000	-2345.300000	1206.656250	4675.677734
503.000000	-2345.300000	1205.558594	4553.820801
503.000000	-2345.300000	1204.461914	4673.557617
503.000000	-2345.300000	1203.364258	4736.285156
503.000000	-2345.300000	1202.266602	4694.212891
503.000000	-2345.300000	1201.168945	4563.351074
503.000000	-2345.300000	1200.071289	4664.761719
503.000000	-2345.300000	1198.972656	4709.223633
503.000000	-2345.300000	1197.874023	4639.886230
503.000000	-2345.300000	1196.775391	4736.658203
503.000000	-2345.300000	1195.675781	4683.266602
503.000000	-2345.300000	1194.576172	4598.062500
503.000000	-2345.300000	1193.476563	4640.211914
503.000000	-2345.300000	1192.376953	4580.058105
503.000000	-2345.300000	1191.276367	4663.095703
503.000000	-2345.300000	1190.176758	4725.647949
503.000000	-2345.300000	1189.076172	4640.527832
503.000000	-2345.300000	1187.974609	4530.465820
503.000000	-2345.300000	1186.874023	4688.359863
503.000000	-2345.300000	1185.772461	4712.258789
503.000000	-2345.300000	1184.670898	4672.604004
503.000000	-2345.300000	1183.569336	4621.622070
503.000000	-2345.300000	1182.466797	4609.225098
503.000000	-2345.300000	1181.364258	4714.758301
503.000000	-2345.300000	1180.261719	4643.394531
503.000000	-2345.300000	1179.159180	4721.669434
503.000000	-2345.300000	1178.055664	4688.861816
503.000000	-2345.300000	1176.952148	4755.760254
503.000000	-2345.300000	1175.848633	4770.527832
503.000000	-2345.300000	1174.745117	4778.494141
503.000000	-2345.300000	1173.640625	4720.794922
503.000000	-2345.300000	1172.536133	4737.822266
503.000000	-2345.300000	1171.431641	4745.788574
503.000000	-2345.300000	1170.326172	4785.426758
503.000000	-2345.300000	1169.221680	4761.708008
503.000000	-2345.300000	1168.116211	4801.323242
503.000000	-2345.300000	1167.010742	4829.614258
503.000000	-2345.300000	1165.904297	4912.144531
503.000000	-2345.300000	1164.797852	4854.515625
503.000000	-2345.300000	1163.691406	4751.722168
503.000000	-2345.300000	1162.584961	4870.354980
503.000000	-2345.300000	1161.478516	4760.828613
503.000000	-2345.300000	1160.371094	4938.109863
503.000000	-2345.300000	1159.263672	4882.794922
503.000000	-2345.300000	1158.155273	4818.477051
503.000000	-2345.300000	1157.047852	4853.468750
503.000000	-2345.300000	1155.939453	4868.141113
503.000000	-2345.300000	1154.831055	4709.145020
503.000000	-2345.300000	1153.722656	4820.799316
503.000000	-2345.300000	1152.613281	4839.975586
503.000000	-2345.300000	1151.503906	4753.214844
503.000000	-2345.300000	1150.394531	4790.422363
503.000000	-2345.300000	1149.285156	4755.524414
503.000000	-2345.300000	1148.174805	4758.930176
503.000000	-2345.300000	1147.064453	4771.339844
503.000000	-2345.300000	1145.954102	4684.691406
503.000000	-2345.300000	1144.842773	4742.124512
503.000000	-2345.300000	1143.732422	4768.028320
503.000000	-2345.300000	1142.621094	4769.173828
503.000000	-2345.300000	1141.508789	4754.574219
503.000000	-2345.300000	1140.397461	4730.986816
503.000000	-2345.300000	1139.285156	4840.044434
503.000000	-2345.300000	1138.172852	4753.515625
503.000000	-2345.300000	1137.060547	4792.858887
503.000000	-2345.300000	1135.947266	4773.774414
503.000000	-2345.300000	1134.834961	4705.287109
503.000000	-2345.300000	1133.720703	4818.711426
503.000000	-2345.300000	1132.607422	4772.693359
503.000000	-2345.300000	1131.493164	4912.980469
503.000000	-2345.300000	1130.379883	4889.398926
503.000000	-2345.300000	1129.264648	4850.124512
503.000000	-2345.300000	1128.150391	4943.194336
503.000000	-2345.300000	1127.035156	4919.620117
503.000000	-2345.300000	1125.919922	5001.419922
503.000000	-2345.300000	1124.804688	4935.257813
503.000000	-2345.300000	1123.689453	4846.718750
503.000000	-2345.300000	1122.573242	4847.828125
503.000000	-2345.300000	1121.457031	4911.648438
503.000000	-2345.300000	1120.340820	4912.741211
503.000000	-2345.300000	1119.223633	4931.741699
503.000000	-2345.300000	1118.106445	4827.635742
503.000000	-2345.300000	1116.989258	4971.951660
503.000000	-2345.300000	1115.872070	4981.974609
503.000000	-2345.300000	1114.753906	4965.153320
503.000000	-2345.300000	1113.635742	5066.849121
503.000000	-2345.300000	1112.517578	4991.891113
503.000000	-2345.300000	1111.399414	4800.748535
503.000000	-2345.300000	1110.280273	5076.697266
503.000000	-2345.300000	1109.161133	5084.442871
503.000000	-2345.300000	1108.041992	5087.717773
503.000000	-2345.300000	1106.921875	5182.538574
503.000000	-2345.300000	1105.802734	5123.280762
503.000000	-2345.300000	1104.682617	5128.773926
503.000000	-2345.300000	1103.561523	5270.373535
503.000000	-2345.300000	1102.441406	5144.210938
503.000000	-2345.300000	1101.320313	5209.909668
503.000000	-2345.300000	1100.199219	5306.793457
503.000000	-2345.300000	1099.077148	5238.668457
503.000000	-2345.300000	1097.956055	5244.121582
503.000000	-2345.300000	1096.833984	5349.839355
503.000000	-2345.300000	1095.711914	5335.213379
503.000000	-2345.300000	1094.588867	5325.047363
503.000000	-2345.300000	1093.465820	5415.082520
503.000000	-2345.300000	1092.342773	5456.101074
503.000000	-2345.300000	1091.219727	5463.715820
503.000000	-2345.300000	1090.096680	5538.077148
503.000000	-2345.300000	1088.972656	5510.075195
503.000000	-2345.300000	1087.848633	5682.243652
503.000000	-2345.300000	1086.723633	5640.878418
503.000000	-2345.300000	1085.599609	5770.697266
503.000000	-2345.300000	1084.474609	5796.000977
503.000000	-2345.300000	1083.349609	5859.063477
503.000000	-2345.300000	1082.223633	5979.850098
503.000000	-2345.300000	1081.097656	5978.434082
503.000000	-2345.300000	1079.971680	6103.573730
503.000000	-2345.300000	1078.845703	6230.873535
503.000000	-2345.300000	1077.719727	6415.811523
503.000000	-2345.300000	1076.592773	6427.602051
503.000000	-2345.300000	1075.465820	6443.821777
503.000000	-2345.300000	1074.337891	6504.386230
503.000000	-2345.300000	1073.210938	6558.269531
503.000000	-2345.300000	1072.083008	6514.595215
503.000000	-2345.300000	1070.954102	6552.936035
503.000000	-2345.300000	1069.826172	6591.257324
503.000000	-2345.300000	1068.697266	6565.323730
503.000000	-2345.300000	1067.568359	6526.114258
503.000000	-2345.300000	1066.439453	6265.525879
503.000000	-2345.300000	1065.309570	6436.681641
503.000000	-2345.300000	1064.180664	6205.004395
503.000000	-2345.300000	1063.049805	6210.161621
503.000000	-2345.300000	1061.919922	6252.917480
503.000000	-2345.300000	1060.789063	5961.740723
503.000000	-2345.300000	1059.658203	6002.322754
503.000000	-2345.300000	1058.527344	5908.057129
503.000000	-2345.300000	1057.396484	5888.967285
503.000000	-2345.300000	1056.264648	6011.275391
503.000000	-2345.300000	1055.132813	5830.934082
503.000000	-2345.300000	1054.000000	5800.832520
503.000000	-2345.300000	1052.868164	5830.350586
503.000000	-2345.300000	1051.735352	5851.025391
503.000000	-2345.300000	1050.602539	5818.730957
503.000000	-2345.300000	1049.468750	5841.603027
503.000000	-2345.300000	1048.335938	5747.570313
503.000000	-2345.300000	1047.202148	5871.875488
503.000000	-2345.300000	1046.067383	5874.874512
503.000000	-2345.300000	1044.933594	5996.883789
503.000000	-2345.300000	1043.798828	5933.748047
503.000000	-2345.300000	1042.664063	5936.727539
503.000000	-2345.300000	1041.528320	5966.132324
503.000000	-2345.300000	1040.393555	6072.585938
503.000000	-2345.300000	1039.257813	5983.073242
503.000000	-2345.300000	1038.122070	6012.442871
503.000000	-2345.300000	1036.985352	6096.803223
503.000000	-2345.300000	1035.848633	6218.516113
503.000000	-2345.300000	1034.711914	6118.054688
503.000000	-2345.300000	1033.575195	6109.982910
503.000000	-2345.300000	1032.437500	6123.895020
503.000000	-2345.300000	1031.299805	6001.550781
503.000000	-2345.300000	1030.162109	6011.085938
503.000000	-2345.300000	1029.023438	6088.707520
503.000000	-2345.300000	1027.885742	5990.612793
503.000000	-2345.300000	1026.747070	6033.072754
503.000000	-2345.300000	1025.607422	5987.714355
503.000000	-2345.300000	1024.468750	5834.853027
503.000000	-2345.300000	1023.329102	5855.377930
503.000000	-2345.300000	1022.189453	5770.613281
503.000000	-2345.300000	1021.048828	5924.901855
503.000000	-2345.300000	1019.908203	6013.347168
503.000000	-2345.300000	1018.767578	5906.685547
503.000000	-2345.300000	1017.626953	5872.383789
503.000000	-2345.300000	1016.485352	5864.385742
503.000000	-2345.300000	1015.344727	5792.876953
503.000000	-2345.300000	1014.202148	5776.141602
503.000000	-2345.300000	1013.060547	5844.786621
503.000000	-2345.300000	1011.917969	5773.332031
503.000000	-2345.300000	1010.775391	5701.910645
503.000000	-2345.300000	1009.632813	5709.271973
503.000000	-2345.300000	1008.489258	5887.208984
503.000000	-2345.300000	1007.345703	5892.333008
503.000000	-2345.300000	1006.202148	6052.649902
503.000000	-2345.300000	1005.058594	6208.516602
503.000000	-2345.300000	1003.914063	6386.154297
503.000000	-2345.300000	1002.769531	6461.043945
503.000000	-2345.300000	1001.625000	6328.441895
503.000000	-2345.300000	1000.479492	6075.827637
503.000000	-2345.300000	999.333984	6148.552246
503.000000	-2345.300000	998.188477	5891.739258
503.000000	-2345.300000	997.042969	5968.834473
503.000000	-2345.300000	995.896484	5912.846191
503.000000	-2345.300000	994.750000	5948.466309
503.000000	-2345.300000	993.603516	5848.908691
503.000000	-2345.300000	992.456055	5832.218262
503.000000	-2345.300000	991.308594	5850.397949
503.000000	-2345.300000	990.161133	5938.275391
503.000000	-2345.300000	989.012695	5910.683105
503.000000	-2345.300000	987.865234	5883.103027
503.000000	-2345.300000	986.716797	5966.551270
503.000000	-2345.300000	985.567383	5949.850098
503.000000	-2345.300000	984.418945	5859.182129
503.000000	-2345.300000	983.269531	6027.403320
503.000000	-2345.300000	982.119141	6149.873535
503.000000	-2345.300000	980.969727	6133.139648
503.000000	-2345.300000	979.819336	6335.942871
503.000000	-2345.300000	978.668945	6280.054688
503.000000	-2345.300000	977.518555	6502.271973
503.000000	-2345.300000	976.367188	6865.555664
503.000000	-2345.300000	975.215820	6989.802246
503.000000	-2345.300000	974.064453	7198.650879
503.000000	-2345.300000	972.912109	7570.170898
503.000000	-2345.300000	971.760742	8290.845703
503.000000	-2345.300000	970.607422	8601.169922
503.000000	-2345.300000	969.455078	9249.661133
503.000000	-2345.300000	968.301758	10214.387695
503.000000	-2345.300000	967.148438	11020.394531
503.000000	-2345.300000	965.995117	11754.484375
503.000000	-2345.300000	964.840820	12936.692383
503.000000	-2345.300000	963.687500	13620.120117
503.000000	-2345.300000	962.532227	14268.557617
503.000000	-2345.300000	961.377930	14936.155273
503.000000	-2345.300000	960.222656	14893.483398
503.000000	-2345.300000	959.067383	14848.666992
503.000000	-2345.300000	957.912109	14429.608398
503.000000	-2345.300000	956.755859	13794.473633
503.000000	-2345.300000	955.599609	13375.880859
503.000000	-2345.300000	954.443359	12559.732422
503.000000	-2345.300000	953.286133	11638.090820
503.000000	-2345.300000	952.129883	11114.467773
503.000000	-2345.300000	950.972656	10467.977539
503.000000	-2345.300000	949.814453	10050.723633
503.000000	-2345.300000	948.656250	9439.362305
503.000000	-2345.300000	947.498047	9128.336914
503.000000	-2345.300000	946.339844	8500.244141
503.000000	-2345.300000	945.180664	8144.299805
503.000000	-2345.300000	944.022461	7930.886719
503.000000	-2345.300000	942.862305	7788.738770
503.000000	-2345.300000	941.703125	7517.312012
503.000000	-2345.300000	940.542969	7407.665039
503.000000	-2345.300000	939.382813	7265.750488
503.000000	-2345.300000	938.222656	7100.209961
503.000000	-2345.300000	937.061523	6962.748535
503.000000	-2345.300000	935.900391	6836.120117
503.000000	-2345.300000	934.739258	6595.468262
503.000000	-2345.300000	933.577148	6544.313965
503.000000	-2345.300000	932.415039	6508.245117
503.000000	-2345.300000	931.252930	6358.192871
503.000000	-2345.300000	930.090820	6313.584473
503.000000	-2345.300000	928.927734	6419.487793
503.000000	-2345.300000	927.764648	6295.359375
503.000000	-2345.300000	926.600586	6261.541016
503.000000	-2345.300000	925.437500	6049.435059
503.000000	-2345.300000	924.273438	5992.068848
503.000000	-2345.300000	923.108398	6070.000977
503.000000	-2345.300000	921.944336	5937.524902
503.000000	-2345.300000	920.779297	6137.755371
503.000000	-2345.300000	919.614258	6005.326660
503.000000	-2345.300000	918.448242	6012.387695
503.000000	-2345.300000	917.283203	5916.511230
503.000000	-2345.300000	916.116211	5897.862305
503.000000	-2345.300000	914.950195	5870.647949
503.000000	-2345.300000	913.783203	5922.730957
503.000000	-2345.300000	912.616211	5754.132324
503.000000	-2345.300000	911.449219	5709.838379
503.000000	-2345.300000	910.282227	5768.342285
503.000000	-2345.300000	909.114258	5775.439941
503.000000	-2345.300000	907.945313	5639.146973
503.000000	-2345.300000	906.777344	5766.086914
503.000000	-2345.300000	905.608398	5777.454590
503.000000	-2345.300000	904.439453	5681.892090
503.000000	-2345.300000	903.270508	5522.240234
503.000000	-2345.300000	902.100586	5685.411621
503.000000	-2345.300000	900.930664	5780.120117
503.000000	-2345.300000	899.759766	5727.375977
503.000000	-2345.300000	898.589844	5757.951172
503.000000	-2345.300000	897.418945	5600.612793
503.000000	-2345.300000	896.248047	5735.800293
503.000000	-2345.300000	895.076172	5704.457520
503.000000	-2345.300000	893.904297	5752.071777
503.000000	-2345.300000	892.732422	5690.876465
503.000000	-2345.300000	891.559570	5614.784180
503.000000	-2345.300000	890.387695	5664.513184
503.000000	-2345.300000	889.214844	5842.098145
503.000000	-2345.300000	888.041016	5776.676270
503.000000	-2345.300000	886.867188	5764.544434
503.000000	-2345.300000	885.693359	5809.919922
503.000000	-2345.300000	884.519531	5780.749512
503.000000	-2345.300000	883.344727	5792.037598
503.000000	-2345.300000	882.169922	5916.107422
503.000000	-2345.300000	880.995117	5880.546387
503.000000	-2345.300000	879.820313	5827.986328
503.000000	-2345.300000	878.644531	5947.694824
503.000000	-2345.300000	877.468750	5886.638672
503.000000	-2345.300000	876.291992	5987.140137
503.000000	-2345.300000	875.115234	5917.603516
503.000000	-2345.300000	873.938477	5950.066406
503.000000	-2345.300000	872.761719	5844.469727
503.000000	-2345.300000	871.583984	5872.686035
503.000000	-2345.300000	870.406250	5943.338867
503.000000	-2345.300000	869.228516	5854.798828
503.000000	-2345.300000	868.049805	5929.660645
503.000000	-2345.300000	866.871094	5828.441406
503.000000	-2345.300000	865.692383	5786.645508
503.000000	-2345.300000	864.512695	5772.428711
503.000000	-2345.300000	863.333008	5783.649902
503.000000	-2345.300000	862.153320	5907.159180
503.000000	-2345.300000	860.972656	5939.520020
503.000000	-2345.300000	859.791992	5836.330566
503.000000	-2345.300000	858.611328	5927.969727
503.000000	-2345.300000	857.430664	5892.565430
503.000000	-2345.300000	856.249023	5979.908203
503.000000	-2345.300000	855.067383	5986.816406
503.000000	-2345.300000	853.884766	6033.902832
503.000000	-2345.300000	852.703125	6076.735352
503.000000	-2345.300000	851.519531	6056.128906
503.000000	-2345.300000	850.336914	5986.926758
503.000000	-2345.300000	849.153320	5955.788574
503.000000	-2345.300000	847.969727	6051.396484
503.000000	-2345.300000	846.786133	6043.482910
503.000000	-2345.300000	845.601563	5938.462891
503.000000	-2345.300000	844.416992	5903.144043
503.000000	-2345.300000	843.232422	5929.031738
503.000000	-2345.300000	842.046875	5952.795410
503.000000	-2345.300000	840.862305	5953.347168
503.000000	-2345.300000	839.675781	6116.238770
503.000000	-2345.300000	838.490234	6017.680176
503.000000	-2345.300000	837.303711	6094.071289
503.000000	-2345.300000	836.117188	6155.674316
503.000000	-2345.300000	834.929688	6065.603516
503.000000	-2345.300000	833.742188	6091.384766
503.000000	-2345.300000	832.554688	6148.726563
503.000000	-2345.300000	831.367188	6081.873535
503.000000	-2345.300000	830.178711	6004.535645
503.000000	-2345.300000	828.990234	5897.789551
503.000000	-2345.300000	827.800781	5875.210449
503.000000	-2345.300000	826.612305	5850.540039
503.000000	-2345.300000	825.422852	5874.219727
503.000000	-2345.300000	824.232422	5876.875000
503.000000	-2345.300000	823.042969	5751.391602
503.000000	-2345.300000	821.851563	5741.475098
503.000000	-2345.300000	820.661133	5813.441895
503.000000	-2345.300000	819.469727	5746.840820
503.000000	-2345.300000	818.278320	5841.848145
503.000000	-2345.300000	817.086914	5936.803711
503.000000	-2345.300000	815.895508	5941.525879
503.000000	-2345.300000	814.703125	6053.176270
503.000000	-2345.300000	813.509766	6135.419922
503.000000	-2345.300000	812.317383	6253.244141
503.000000	-2345.300000	811.124023	6272.537598
503.000000	-2345.300000	809.929688	6147.300781
503.000000	-2345.300000	808.736328	6091.228516
503.000000	-2345.300000	807.541992	5892.835449
503.000000	-2345.300000	806.347656	5824.300781
503.000000	-2345.300000	805.152344	5849.953125
503.000000	-2345.300000	803.957031	5660.145020
503.000000	-2345.300000	802.761719	5608.452637
503.000000	-2345.300000	801.566406	5636.229004
503.000000	-2345.300000	800.370117	5666.079102
503.000000	-2345.300000	799.172852	5474.427734
503.000000	-2345.300000	797.976563	5529.369629
503.000000	-2345.300000	796.779297	5509.100586
503.000000	-2345.300000	795.582031	5609.933105
503.000000	-2345.300000	794.383789	5389.274902
503.000000	-2345.300000	793.186523	5460.870117
503.000000	-2345.300000	791.987305	5471.927734
503.000000	-2345.300000	790.789063	5470.465332
503.000000	-2345.300000	789.589844	5608.698242
503.000000	-2345.300000	788.390625	5523.819336
503.000000	-2345.300000	787.191406	5447.319824
503.000000	-2345.300000	785.991211	5616.694824
503.000000	-2345.300000	784.791016	5504.801758
503.000000	-2345.300000	783.589844	5536.641113
503.000000	-2345.300000	782.388672	5616.340820
503.000000	-2345.300000	781.187500	5517.020996
503.000000	-2345.300000	779.986328	5588.358398
503.000000	-2345.300000	778.784180	5605.576660
503.000000	-2345.300000	777.582031	5525.050781
503.000000	-2345.300000	776.379883	5667.006836
503.000000	-2345.300000	775.176758	5580.270508
503.000000	-2345.300000	773.973633	5520.590820
503.000000	-2345.300000	772.769531	5602.190918
503.000000	-2345.300000	771.566406	5519.691895
503.000000	-2345.300000	770.361328	5572.181152
503.000000	-2345.300000	769.157227	5657.849121
503.000000	-2345.300000	767.952148	5598.222656
503.000000	-2345.300000	766.747070	5629.900391
503.000000	-2345.300000	765.541992	5470.767578
503.000000	-2345.300000	764.335938	5548.072266
503.000000	-2345.300000	763.129883	5480.244141
503.000000	-2345.300000	761.922852	5478.760254
503.000000	-2345.300000	760.716797	5543.566895
503.000000	-2345.300000	759.509766	5583.485352
503.000000	-2345.300000	758.301758	5637.873535
503.000000	-2345.300000	757.093750	5528.708984
503.000000	-2345.300000	755.885742	5481.682617
503.000000	-2345.300000	754.677734	5517.431641
503.000000	-2345.300000	753.468750	5602.797363
503.000000	-2345.300000	752.259766	5495.823730
503.000000	-2345.300000	751.049805	5531.536133
503.000000	-2345.300000	749.840820	5666.421387
503.000000	-2345.300000	748.629883	5518.194824
503.000000	-2345.300000	747.419922	5562.129883
503.000000	-2345.300000	746.208984	5455.306641
503.000000	-2345.300000	744.998047	5517.811035
503.000000	-2345.300000	743.787109	5518.369141
503.000000	-2345.300000	742.575195	5568.440918
503.000000	-2345.300000	741.363281	5420.476074
503.000000	-2345.300000	740.150391	5590.142090
503.000000	-2345.300000	738.937500	5483.478516
503.000000	-2345.300000	737.724609	5508.769531
503.000000	-2345.300000	736.511719	5554.648926
503.000000	-2345.300000	735.297852	5563.425781
503.000000	-2345.300000	734.083984	5432.171387
503.000000	-2345.300000	732.869141	5517.144531
503.000000	-2345.300000	731.654297	5581.488770
503.000000	-2345.300000	730.439453	5544.979004
503.000000	-2345.300000	729.223633	5629.847168
503.000000	-2345.300000	728.007813	5461.733398
503.000000	-2345.300000	726.791992	5511.626953
503.000000	-2345.300000	725.576172	5610.817383
503.000000	-2345.300000	724.359375	5633.928711
592.991757	-2301.693994	1819.745117	2913.741699
592.991757	-2301.693994	1818.780273	2952.626221
592.991757	-2301.693994	1817.815430	3032.323975
592.991757	-2301.693994	1816.850586	3018.705078
592.991757	-2301.693994	1815.885742	3028.407471
592.991757	-2301.693994	1814.920898	2942.274414
592.991757	-2301.693994	1813.955078	2928.684326
592.991757	-2301.693994	1812.989258	2920.277588
592.991757	-2301.693994	1812.023438	3015.408203
592.991757	-2301.693994	1811.057617	2973.345459
592.991757	-2301.693994	1810.091797	3045.138184
592.991757	-2301.693994	1809.125000	2987.567383
592.991757	-2301.693994	1808.158203	3051.567627
592.991757	-2301.693994	1807.191406	3014.704834
592.991757	-2301.693994	1806.223633	3050.236572
592.991757	-2301.693994	1805.256836	2920.352295
592.991757	-2301.693994	1804.289063	3108.334717
592.991757	-2301.693994	1803.321289	3143.822998
592.991757	-2301.693994	1802.353516	3166.382324
592.991757	-2301.693994	1801.384766	3101.139160
592.991757	-2301.693994	1800.416992	3084.974609
592.991757	-2301.693994	1799.448242	3164.314209
592.991757	-2301.693994	1798.479492	3044.925049
592.991757	-2301.693994	1797.510742	3124.238770
592.991757	-2301.693994	1796.541016	3139.035156
592.991757	-2301.693994	1795.571289	3086.777100
592.991757	-2301.693994	1794.601563	3245.954346
592.991757	-2301.693994	1793.631836	3090.590332
592.991757	-2301.693994	1792.662109	3118.266602
592.991757	-2301.693994	1791.691406	3182.001953
592.991757	-2301.693994	1790.721680	3060.240479
592.991757	-2301.693994	1789.750977	3108.508545
592.991757	-2301.693994	1788.779297	3200.527832
592.991757	-2301.693994	1787.808594	3179.238770
592.991757	-2301.693994	1786.836914	3055.010010
592.991757	-2301.693994	1785.865234	3224.176025
592.991757	-2301.693994	1784.893555	3107.709229
592.991757	-2301.693994	1783.921875	3171.336426
592.991757	-2301.693994	1782.949219	3216.935791
592.991757	-2301.693994	1781.977539	3126.255615
592.991757	-2301.693994	1781.004883	3156.422607
592.991757	-2301.693994	1780.031250	3145.459229
592.991757	-2301.693994	1779.058594	3129.362305
592.991757	-2301.693994	1778.084961	3177.489746
592.991757	-2301.693994	1777.112305	3128.006836
592.991757	-2301.693994	1776.138672	3201.789795
592.991757	-2301.693994	1775.164063	3185.694580
592.991757	-2301.693994	1774.190430	3349.260010
592.991757	-2301.693994	1773.215820	3179.184082
592.991757	-2301.693994	1772.241211	3240.065430
592.991757	-2301.693994	1771.266602	3208.586670
592.991757	-2301.693994	1770.291992	3187.378906
592.991757	-2301.693994	1769.316406	3273.855957
592.991757	-2301.693994	1768.340820	3142.427490
592.991757	-2301.693994	1767.365234	3290.379150
592.991757	-2301.693994	1766.389648	3202.558594
592.991757	-2301.693994	1765.414063	3386.294434
592.991757	-2301.693994	1764.437500	3211.419189
592.991757	-2301.693994	1763.460938	3287.537354
592.991757	-2301.693994	1762.484375	3289.387451
592.991757	-2301.693994	1761.507813	3273.321777
592.991757	-2301.693994	1760.531250	3249.586914
592.991757	-2301.693994	1759.553711	3384.469238
592.991757	-2301.693994	1758.576172	3324.913818
592.991757	-2301.693994	1757.598633	3278.169434
592.991757	-2301.693994	1756.620117	3280.019043
592.991757	-2301.693994	1755.642578	3386.662842
592.991757	-2301.693994	1754.664063	3293.937744
592.991757	-2301.693994	1753.685547	3178.258545
592.991757	-2301.693994	1752.707031	3287.409668
592.991757	-2301.693994	1751.727539	3365.868164
592.991757	-2301.693994	1750.749023	3339.611084
592.991757	-2301.693994	1749.769531	3303.154541
592.991757	-2301.693994	1748.790039	3445.362305
592.991757	-2301.693994	1747.809570	3370.625000
592.991757	-2301.693994	1746.830078	3323.981201
592.991757	-2301.693994	1745.849609	3417.633545
592.991757	-2301.693994	1744.869141	3462.796875
592.991757	-2301.693994	1743.888672	3436.558105
592.991757	-2301.693994	1742.908203	3453.660889
592.991757	-2301.693994	1741.926758	3534.463135
592.991757	-2301.693994	1740.945313	3470.010010
592.991757	-2301.693994	1739.963867	3474.358643
592.991757	-2301.693994	1738.982422	3514.357910
592.991757	-2301.693994	1738.000000	3516.148926
592.991757	-2301.693994	1737.018555	3502.665771
592.991757	-2301.693994	1736.036133	3575.718262
592.991757	-2301.693994	1735.053711	3496.072510
592.991757	-2301.693994	1734.070313	3515.673096
592.991757	-2301.693994	1733.087891	3517.461426
592.991757	-2301.693994	1732.104492	3580.276855
592.991757	-2301.693994	1731.121094	3538.832031
592.991757	-2301.693994	1730.137695	3660.075195
592.991757	-2301.693994	1729.154297	3641.501709
592.991757	-2301.693994	1728.169922	3724.561279
592.991757	-2301.693994	1727.185547	3655.180176
592.991757	-2301.693994	1726.201172	3649.317139
592.991757	-2301.693994	1725.216797	3772.945557
592.991757	-2301.693994	1724.231445	3822.905518
592.991757	-2301.693994	1723.247070	3832.237793
592.991757	-2301.693994	1722.261719	3813.655029
592.991757	-2301.693994	1721.276367	3815.374512
592.991757	-2301.693994	1720.290039	3905.863037
592.991757	-2301.693994	1719.304688	3866.990479
592.991757	-2301.693994	1718.318359	3975.175293
592.991757	-2301.693994	1717.332031	3918.561768
592.991757	-2301.693994	1716.345703	3920.256836
592.991757	-2301.693994	1715.358398	3825.675781
592.991757	-2301.693994	1714.372070	3926.177490
592.991757	-2301.693994	1713.384766	3902.544922
592.991757	-2301.693994	1712.397461	3851.071045
592.991757	-2301.693994	1711.409180	3855.309814
592.991757	-2301.693994	1710.421875	3922.818115
592.991757	-2301.693994	1709.433594	3904.266846
592.991757	-2301.693994	1708.445313	3845.247070
592.991757	-2301.693994	1707.457031	3917.772461
592.991757	-2301.693994	1706.468750	4063.598389
592.991757	-2301.693994	1705.479492	4017.223145
592.991757	-2301.693994	1704.490234	3960.757080
592.991757	-2301.693994	1703.500977	4063.520264
592.991757	-2301.693994	1702.511719	4120.761719
592.991757	-2301.693994	1701.521484	4124.933105
592.991757	-2301.693994	1700.532227	4237.697266
592.991757	-2301.693994	1699.541992	4224.167480
592.991757	-2301.693994	1698.551758	4235.886719
592.991757	-2301.693994	1697.560547	4166.838867
592.991757	-2301.693994	1696.570313	4211.368164
592.991757	-2301.693994	1695.579102	4356.788574
592.991757	-2301.693994	1694.587891	4391.169434
592.991757	-2301.693994	1693.596680	4425.535645
592.991757	-2301.693994	1692.604492	4369.125977
592.991757	-2301.693994	1691.613281	4398.440430
592.991757	-2301.693994	1690.621094	4518.464844
592.991757	-2301.693994	1689.628906	4550.254395
592.991757	-2301.693994	1688.636719	4561.878906
592.991757	-2301.693994	1687.643555	4586.090332
592.991757	-2301.693994	1686.650391	4625.398438
592.991757	-2301.693994	1685.657227	4619.377441
592.991757	-2301.693994	1684.664063	4618.392578
592.991757	-2301.693994	1683.670898	4627.472656
592.991757	-2301.693994	1682.676758	4772.400391
592.991757	-2301.693994	1681.683594	4791.504883
592.991757	-2301.693994	1680.689453	4805.571777
592.991757	-2301.693994	1679.694336	4746.722168
592.991757	-2301.693994	1678.700195	4798.496582
592.991757	-2301.693994	1677.705078	4860.301270
592.991757	-2301.693994	1676.709961	4939.666992
592.991757	-2301.693994	1675.714844	4890.886719
592.991757	-2301.693994	1674.719727	4854.684082
592.991757	-2301.693994	1673.723633	4833.562500
592.991757	-2301.693994	1672.728516	4867.678711
592.991757	-2301.693994	1671.732422	4766.247559
592.991757	-2301.693994	1670.735352	4915.792969
592.991757	-2301.693994	1669.739258	4902.202148
592.991757	-2301.693994	1668.742188	4861.026367
592.991757	-2301.693994	1667.746094	4857.483887
592.991757	-2301.693994	1666.748047	4896.564941
592.991757	-2301.693994	1665.750977	5015.842773
592.991757	-2301.693994	1664.753906	4756.643555
592.991757	-2301.693994	1663.755859	4753.125977
592.991757	-2301.693994	1662.757813	4844.802246
592.991757	-2301.693994	1661.759766	4843.771484
592.991757	-2301.693994	1660.761719	4782.644531
592.991757	-2301.693994	1659.762695	4839.207031
592.991757	-2301.693994	1658.763672	4765.592773
592.991757	-2301.693994	1657.764648	4837.148926
592.991757	-2301.693994	1656.765625	4635.970215
592.991757	-2301.693994	1655.765625	4765.054199
592.991757	-2301.693994	1654.766602	4646.502930
592.991757	-2301.693994	1653.766602	4588.008789
592.991757	-2301.693994	1652.766602	4609.530762
592.991757	-2301.693994	1651.765625	4611.050293
592.991757	-2301.693994	1650.765625	4667.539551
592.991757	-2301.693994	1649.764648	4594.101074
592.991757	-2301.693994	1648.763672	4610.607910
592.991757	-2301.693994	1647.762695	4614.622559
592.991757	-2301.693994	1646.761719	4718.497070
592.991757	-2301.693994	1645.759766	4824.823730
592.991757	-2301.693994	1644.757813	4986.005859
592.991757	-2301.693994	1643.755859	4962.491699
592.991757	-2301.693994	1642.753906	5051.237305
592.991757	-2301.693994	1641.750977	5254.664551
592.991757	-2301.693994	1640.749023	5206.174316
592.991757	-2301.693994	1639.746094	5152.718750
592.991757	-2301.693994	1638.742188	5134.177734
592.991757	-2301.693994	1637.739258	5113.152832
592.991757	-2301.693994	1636.735352	5136.979492
592.991757	-2301.693994	1635.732422	5018.824219
592.991757	-2301.693994	1634.728516	4933.091797
592.991757	-2301.693994	1633.723633	4937.023438
592.991757	-2301.693994	1632.719727	4769.202637
592.991757	-2301.693994	1631.714844	4857.780273
592.991757	-2301.693994	1630.709961	4563.154297
592.991757	-2301.693994	1629.705078	4629.349609
592.991757	-2301.693994	1628.700195	4551.269043
592.991757	-2301.693994	1627.694336	4483.166992
592.991757	-2301.693994	1626.689453	4395.206543
592.991757	-2301.693994	1625.683594	4369.418945
592.991757	-2301.693994	1624.676758	4358.551758
592.991757	-2301.693994	1623.670898	4372.533203
592.991757	-2301.693994	1622.664063	4346.766602
592.991757	-2301.693994	1621.657227	4415.377441
592.991757	-2301.693994	1620.650391	4250.574707
592.991757	-2301.693994	1619.643555	4371.304688
592.991757	-2301.693994	1618.635742	4308.333008
592.991757	-2301.693994	1617.628906	4267.719238
592.991757	-2301.693994	1616.621094	4385.887695
592.991757	-2301.693994	1615.613281	4290.709961
592.991757	-2301.693994	1614.604492	4297.238770
592.991757	-2301.693994	1613.596680	4316.160156
592.991757	-2301.693994	1612.587891	4300.372559
592.991757	-2301.693994	1611.579102	4299.460449
592.991757	-2301.693994	1610.569336	4362.964355
592.991757	-2301.693994	1609.560547	4282.774414
592.991757	-2301.693994	1608.550781	4314.060059
592.991757	-2301.693994	1607.541016	4362.664551
592.991757	-2301.693994	1606.531250	4285.000000
592.991757	-2301.693994	1605.521484	4430.111816
592.991757	-2301.693994	1604.510742	4436.595215
592.991757	-2301.693994	1603.500000	4294.643555
592.991757	-2301.693994	1602.489258	4506.440430
592.991757	-2301.693994	1601.478516	4421.408691
592.991757	-2301.693994	1600.467773	4351.246582
592.991757	-2301.693994	1599.456055	4300.888184
592.991757	-2301.693994	1598.444336	4337.044434
592.991757	-2301.693994	1597.432617	4234.824707
592.991757	-2301.693994	1596.419922	4330.264648
592.991757	-2301.693994	1595.408203	4373.800293
592.991757	-2301.693994	1594.395508	4298.798340
592.991757	-2301.693994	1593.382813	4367.008301
592.991757	-2301.693994	1592.370117	4272.293945
592.991757	-2301.693994	1591.356445	4320.739746
592.991757	-2301.693994	1590.343750	4317.356445
592.991757	-2301.693994	1589.330078	4131.450195
592.991757	-2301.693994	1588.316406	4288.398926
592.991757	-2301.693994	1587.301758	4292.420410
592.991757	-2301.693994	1586.288086	4306.299805
592.991757	-2301.693994	1585.273438	4394.106934
592.991757	-2301.693994	1584.258789	4250.267578
592.991757	-2301.693994	1583.244141	4323.268066
592.991757	-2301.693994	1582.228516	4317.425293
592.991757	-2301.693994	1581.213867	4232.789551
592.991757	-2301.693994	1580.198242	4423.915039
592.991757	-2301.693994	1579.182617	4322.062988
592.991757	-2301.693994	1578.166016	4333.450195
592.991757	-2301.693994	1577.150391	4381.736816
592.991757	-2301.693994	1576.133789	4309.474609
592.991757	-2301.693994	1575.117188	4315.938477
592.991757	-2301.693994	1574.100586	4172.418457
592.991757	-2301.693994	1573.083984	4343.605957
592.991757	-2301.693994	1572.066406	4308.277344
592.991757	-2301.693994	1571.048828	4268.049316
592.991757	-2301.693994	1570.031250	4335.929688
592.991757	-2301.693994	1569.013672	4307.992676
592.991757	-2301.693994	1567.995117	4284.979004
592.991757	-2301.693994	1566.976563	4237.423828
592.991757	-2301.693994	1565.958008	4315.070313
592.991757	-2301.693994	1564.939453	4373.051270
592.991757	-2301.693994	1563.920898	4291.158203
592.991757	-2301.693994	1562.901367	4481.579590
592.991757	-2301.693994	1561.881836	4397.245605
592.991757	-2301.693994	1560.862305	4349.726074
592.991757	-2301.693994	1559.842773	4464.019531
592.991757	-2301.693994	1558.822266	4450.817871
592.991757	-2301.693994	1557.802734	4538.086914
592.991757	-2301.693994	1556.782227	4461.178711
592.991757	-2301.693994	1555.761719	4396.549805
592.991757	-2301.693994	1554.740234	4336.845215
592.991757	-2301.693994	1553.719727	4333.477051
592.991757	-2301.693994	1552.698242	4310.527344
592.991757	-2301.693994	1551.676758	4270.456543
592.991757	-2301.693994	1550.654297	4301.357910
592.991757	-2301.693994	1549.632813	4354.261719
592.991757	-2301.693994	1548.610352	4390.022949
592.991757	-2301.693994	1547.587891	4384.201172
592.991757	-2301.693994	1546.565430	4422.384766
592.991757	-2301.693994	1545.542969	4450.775879
592.991757	-2301.693994	1544.519531	4398.515137
592.991757	-2301.693994	1543.496094	4412.240234
592.991757	-2301.693994	1542.472656	4411.303223
592.991757	-2301.693994	1541.449219	4368.852051
592.991757	-2301.693994	1540.424805	4529.066406
592.991757	-2301.693994	1539.400391	4332.822754
592.991757	-2301.693994	1538.375977	4429.522949
592.991757	-2301.693994	1537.351563	4426.142090
592.991757	-2301.693994	1536.327148	4391.049805
592.991757	-2301.693994	1535.301758	4334.021484
592.991757	-2301.693994	1534.276367	4486.722656
592.991757	-2301.693994	1533.250977	4429.697266
592.991757	-2301.693994	1532.225586	4263.013184
592.991757	-2301.693994	1531.199219	4420.505371
592.991757	-2301.693994	1530.173828	4458.547852
592.991757	-2301.693994	1529.147461	4508.753418
592.991757	-2301.693994	1528.121094	4312.969238
592.991757	-2301.693994	1527.093750	4428.923828
592.991757	-2301.693994	1526.067383	4413.377441
592.991757	-2301.693994	1525.040039	4388.101563
592.991757	-2301.693994	1524.012695	4392.035645
592.991757	-2301.693994	1522.984375	4417.862305
592.991757	-2301.693994	1521.957031	4455.839355
592.991757	-2301.693994	1520.928711	4279.809082
592.991757	-2301.693994	1519.900391	4415.045898
592.991757	-2301.693994	1518.872070	4435.983398
592.991757	-2301.693994	1517.842773	4539.537598
592.991757	-2301.693994	1516.814453	4424.378906
592.991757	-2301.693994	1515.785156	4481.737305
592.991757	-2301.693994	1514.755859	4395.783203
592.991757	-2301.693994	1513.725586	4431.269531
592.991757	-2301.693994	1512.696289	4454.603027
592.991757	-2301.693994	1511.666016	4473.072266
592.991757	-2301.693994	1510.635742	4469.693848
592.991757	-2301.693994	1509.605469	4526.967773
592.991757	-2301.693994	1508.574219	4637.578125
592.991757	-2301.693994	1507.543945	4478.966797
592.991757	-2301.693994	1506.512695	4482.862793
592.991757	-2301.693994	1505.481445	4600.683105
592.991757	-2301.693994	1504.449219	4594.857422
592.991757	-2301.693994	1503.417969	4480.001465
592.991757	-2301.693994	1502.385742	4624.393066
592.991757	-2301.693994	1501.353516	4567.704590
592.991757	-2301.693994	1500.321289	4678.116211
592.991757	-2301.693994	1499.288086	4640.807129
592.991757	-2301.693994	1498.255859	4588.991211
592.991757	-2301.693994	1497.222656	4554.136230
592.991757	-2301.693994	1496.189453	4625.746094
592.991757	-2301.693994	1495.155273	4615.085938
592.991757	-2301.693994	1494.122070	4710.834473
592.991757	-2301.693994	1493.087891	4700.159668
592.991757	-2301.693994	1492.053711	4568.626465
592.991757	-2301.693994	1491.018555	4693.323730
592.991757	-2301.693994	1489.984375	4786.556641
592.991757	-2301.693994	1488.949219	4814.524902
592.991757	-2301.693994	1487.914063	4876.294434
592.991757	-2301.693994	1486.878906	4863.181152
592.991757	-2301.693994	1485.843750	4748.678223
592.991757	-2301.693994	1484.807617	4904.553711
592.991757	-2301.693994	1483.771484	4775.611328
592.991757	-2301.693994	1482.735352	4866.272949
592.991757	-2301.693994	1481.699219	4831.465332
592.991757	-2301.693994	1480.662109	4914.840820
592.991757	-2301.693994	1479.625000	4863.159668
592.991757	-2301.693994	1478.587891	4965.776855
592.991757	-2301.693994	1477.550781	5017.738281
592.991757	-2301.693994	1476.513672	5062.448730
592.991757	-2301.693994	1475.475586	5090.276855
592.991757	-2301.693994	1474.437500	5149.403320
592.991757	-2301.693994	1473.399414	5271.111816
592.991757	-2301.693994	1472.361328	5371.101074
592.991757	-2301.693994	1471.322266	5324.221680
592.991757	-2301.693994	1470.283203	5313.458984
592.991757	-2301.693994	1469.244141	5309.917969
592.991757	-2301.693994	1468.205078	5549.326660
592.991757	-2301.693994	1467.166016	5519.282227
592.991757	-2301.693994	1466.125977	5585.426270
592.991757	-2301.693994	1465.085938	5569.809570
592.991757	-2301.693994	1464.045898	5595.056152
592.991757	-2301.693994	1463.004883	5591.457520
592.991757	-2301.693994	1461.964844	5686.355957
592.991757	-2301.693994	1460.923828	5733.177246
592.991757	-2301.693994	1459.882813	5890.438477
592.991757	-2301.693994	1458.841797	5716.320801
592.991757	-2301.693994	1457.799805	5897.520508
592.991757	-2301.693994	1456.757813	5785.869141
592.991757	-2301.693994	1455.715820	5847.012207
592.991757	-2301.693994	1454.673828	5927.318848
592.991757	-2301.693994	1453.631836	5906.864258
592.991757	-2301.693994	1452.588867	5965.543457
592.991757	-2301.693994	1451.545898	5947.485840
592.991757	-2301.693994	1450.502930	5934.229004
592.991757	-2301.693994	1449.458984	5846.695801
592.991757	-2301.693994	1448.416016	5919.709473
592.991757	-2301.693994	1447.372070	5999.876953
592.991757	-2301.693994	1446.328125	6000.986328
592.991757	-2301.693994	1445.284180	5903.935547
592.991757	-2301.693994	1444.239258	5976.872559
592.991757	-2301.693994	1443.194336	5925.336426
592.991757	-2301.693994	1442.150391	5727.873535
592.991757	-2301.693994	1441.104492	5712.293457
592.991757	-2301.693994	1440.059570	5746.942383
592.991757	-2301.693994	1439.013672	5575.944824
592.991757	-2301.693994	1437.967773	5593.873535
592.991757	-2301.693994	1436.921875	5458.831543
592.991757	-2301.693994	1435.875977	5522.177734
592.991757	-2301.693994	1434.829102	5580.717773
592.991757	-2301.693994	1433.783203	5445.764648
592.991757	-2301.693994	1432.735352	5427.879883
592.991757	-2301.693994	1431.688477	5433.876953
592.991757	-2301.693994	1430.641602	5506.706055
592.991757	-2301.693994	1429.593750	5517.456055
592.991757	-2301.693994	1428.545898	5480.481934
592.991757	-2301.693994	1427.498047	5422.054688
592.991757	-2301.693994	1426.449219	5461.433105
592.991757	-2301.693994	1425.401367	5367.268066
592.991757	-2301.693994	1424.352539	5471.005371
592.991757	-2301.693994	1423.303711	5546.097168
592.991757	-2301.693994	1422.253906	5409.082031
592.991757	-2301.693994	1421.205078	5496.065918
592.991757	-2301.693994	1420.155273	5592.539063
592.991757	-2301.693994	1419.105469	5565.141602
592.991757	-2301.693994	1418.055664	5447.284668
592.991757	-2301.693994	1417.004883	5419.929199
592.991757	-2301.693994	1415.955078	5385.445801
592.991757	-2301.693994	1414.904297	5391.424316
592.991757	-2301.693994	1413.852539	5478.277832
592.991757	-2301.693994	1412.801758	5396.237793
592.991757	-2301.693994	1411.750000	5563.895020
592.991757	-2301.693994	1410.698242	5560.319336
592.991757	-2301.693994	1409.646484	5616.162109
592.991757	-2301.693994	1408.594727	5676.733398
592.991757	-2301.693994	1407.541992	5706.393555
592.991757	-2301.693994	1406.490234	5745.541504
592.991757	-2301.693994	1405.437500	5829.790527
592.991757	-2301.693994	1404.383789	5842.778320
592.991757	-2301.693994	1403.331055	5668.242676
592.991757	-2301.693994	1402.277344	5697.870605
592.991757	-2301.693994	1401.223633	5782.055176
592.991757	-2301.693994	1400.169922	5709.644531
592.991757	-2301.693994	1399.115234	5611.177246
592.991757	-2301.693994	1398.061523	5545.946777
592.991757	-2301.693994	1397.006836	5672.759766
592.991757	-2301.693994	1395.952148	5590.952637
592.991757	-2301.693994	1394.896484	5492.593750
592.991757	-2301.693994	1393.841797	5633.548828
592.991757	-2301.693994	1392.786133	5587.329590
592.991757	-2301.693994	1391.730469	5567.178223
592.991757	-2301.693994	1390.673828	5544.666992
592.991757	-2301.693994	1389.618164	5552.936035
592.991757	-2301.693994	1388.561523	5577.766602
592.991757	-2301.693994	1387.504883	5564.729980
592.991757	-2301.693994	1386.448242	5634.489258
592.991757	-2301.693994	1385.390625	5481.914551
592.991757	-2301.693994	1384.333984	5561.118164
592.991757	-2301.693994	1383.276367	5597.736816
592.991757	-2301.693994	1382.217773	5653.246582
592.991757	-2301.693994	1381.160156	5555.143555
592.991757	-2301.693994	1380.101563	5688.595703
592.991757	-2301.693994	1379.042969	5753.495117
592.991757	-2301.693994	1377.984375	5660.155762
592.991757	-2301.693994	1376.925781	5606.990234
592.991757	-2301.693994	1375.866211	5565.649414
592.991757	-2301.693994	1374.807617	5557.362793
592.991757	-2301.693994	1373.747070	5558.517090
592.991757	-2301.693994	1372.687500	5562.028809
592.991757	-2301.693994	1371.627930	5511.297852
592.991757	-2301.693994	1370.567383	5345.058105
592.991757	-2301.693994	1369.506836	5487.690430
592.991757	-2301.693994	1368.446289	5378.088379
592.991757	-2301.693994	1367.384766	5480.594727
592.991757	-2301.693994	1366.323242	5528.874512
592.991757	-2301.693994	1365.261719	5581.842773
592.991757	-2301.693994	1364.200195	5427.574219
592.991757	-2301.693994	1363.138672	5442.874023
592.991757	-2301.693994	1362.076172	5333.421387
592.991757	-2301.693994	1361.013672	5388.737793
592.991757	-2301.693994	1359.951172	5604.009277
592.991757	-2301.693994	1358.888672	5506.352051
592.991757	-2301.693994	1357.825195	5451.066406
592.991757	-2301.693994	1356.761719	5414.613281
592.991757	-2301.693994	1355.698242	5462.797363
592.991757	-2301.693994	1354.634766	5513.309570
592.991757	-2301.693994	1353.570313	5443.970703
592.991757	-2301.693994	1352.506836	5560.238281
592.991757	-2301.693994	1351.442383	5584.860352
592.991757	-2301.693994	1350.376953	5492.069336
592.991757	-2301.693994	1349.312500	5659.894043
592.991757	-2301.693994	1348.247070	5555.391113
592.991757	-2301.693994	1347.181641	5563.565430
592.991757	-2301.693994	1346.116211	5714.841309
592.991757	-2301.693994	1345.049805	5615.083984
592.991757	-2301.693994	1343.984375	5658.412598
592.991757	-2301.693994	1342.917969	5666.554688
592.991757	-2301.693994	1341.851563	5810.642090
592.991757	-2301.693994	1340.784180	5776.564453
592.991757	-2301.693994	1339.716797	5756.559082
592.991757	-2301.693994	1338.650391	5666.289551
592.991757	-2301.693994	1337.582031	5653.341309
592.991757	-2301.693994	1336.514648	5717.664063
592.991757	-2301.693994	1335.446289	5557.233887
592.991757	-2301.693994	1334.378906	5766.650879
592.991757	-2301.693994	1333.310547	5622.658203
592.991757	-2301.693994	1332.241211	5712.661621
592.991757	-2301.693994	1331.172852	5730.121582
592.991757	-2301.693994	1330.103516	5719.513672
592.991757	-2301.693994	1329.034180	5758.003418
592.991757	-2301.693994	1327.964844	5761.416504
592.991757	-2301.693994	1326.894531	5589.568848
592.991757	-2301.693994	1325.824219	5730.855957
592.991757	-2301.693994	1324.753906	5713.249023
592.991757	-2301.693994	1323.683594	5588.228027
592.991757	-2301.693994	1322.612305	5750.433105
592.991757	-2301.693994	1321.541992	5718.826660
592.991757	-2301.693994	1320.470703	5558.879395
592.991757	-2301.693994	1319.399414	5720.982422
592.991757	-2301.693994	1318.327148	5768.712402
592.991757	-2301.693994	1317.254883	5555.218262
592.991757	-2301.693994	1316.182617	5614.620605
592.991757	-2301.693994	1315.110352	5711.294434
592.991757	-2301.693994	1314.038086	5698.385742
592.991757	-2301.693994	1312.964844	5692.472168
592.991757	-2301.693994	1311.891602	5628.320801
592.991757	-2301.693994	1310.818359	5671.335449
592.991757	-2301.693994	1309.745117	5611.872559
592.991757	-2301.693994	1308.670898	5578.044434
592.991757	-2301.693994	1307.596680	5662.935547
592.991757	-2301.693994	1306.522461	5698.920898
592.991757	-2301.693994	1305.448242	5672.073730
592.991757	-2301.693994	1304.373047	5712.691895
592.991757	-2301.693994	1303.297852	5746.314941
592.991757	-2301.693994	1302.222656	5633.448730
592.991757	-2301.693994	1301.147461	5748.429688
592.991757	-2301.693994	1300.071289	5828.500488
592.991757	-2301.693994	1298.996094	5734.275879
592.991757	-2301.693994	1297.919922	5758.562500
592.991757	-2301.693994	1296.842773	5850.187988
592.991757	-2301.693994	1295.766602	5872.115234
592.991757	-2301.693994	1294.689453	5956.709473
592.991757	-2301.693994	1293.612305	5853.273926
592.991757	-2301.693994	1292.535156	5898.387695
592.991757	-2301.693994	1291.457031	5760.211914
592.991757	-2301.693994	1290.378906	5742.702148
592.991757	-2301.693994	1289.300781	5994.184570
592.991757	-2301.693994	1288.222656	5934.899902
592.991757	-2301.693994	1287.144531	5959.082031
592.991757	-2301.693994	1286.065430	6082.896484
592.991757	-2301.693994	1284.986328	5988.877930
592.991757	-2301.693994	1283.907227	5971.336914
592.991757	-2301.693994	1282.827148	5928.330078
592.991757	-2301.693994	1281.748047	6031.201660
592.991757	-2301.693994	1280.667969	5937.274902
592.991757	-2301.693994	1279.586914	6229.863281
592.991757	-2301.693994	1278.506836	6082.717773
592.991757	-2301.693994	1277.425781	6058.235840
592.991757	-2301.693994	1276.344727	6128.583496
592.991757	-2301.693994	1275.263672	6122.598145
592.991757	-2301.693994	1274.182617	6331.597656
592.991757	-2301.693994	1273.100586	6126.811035
592.991757	-2301.693994	1272.018555	6090.790039
592.991757	-2301.693994	1270.936523	6188.770020
592.991757	-2301.693994	1269.853516	6233.585449
592.991757	-2301.693994	1268.771484	6202.180664
592.991757	-2301.693994	1267.688477	6122.309082
592.991757	-2301.693994	1266.605469	6164.798828
592.991757	-2301.693994	1265.521484	6200.346680
592.991757	-2301.693994	1264.438477	6111.298828
592.991757	-2301.693994	1263.354492	6220.649414
592.991757	-2301.693994	1262.270508	6182.366699
592.991757	-2301.693994	1261.185547	6300.873047
592.991757	-2301.693994	1260.101563	6184.219727
592.991757	-2301.693994	1259.016602	6431.720703
592.991757	-2301.693994	1257.930664	6308.176758
592.991757	-2301.693994	1256.845703	6345.926758
592.991757	-2301.693994	1255.759766	6346.812500
592.991757	-2301.693994	1254.674805	6297.044434
592.991757	-2301.693994	1253.587891	6488.995117
592.991757	-2301.693994	1252.501953	6535.873535
592.991757	-2301.693994	1251.415039	6421.670410
592.991757	-2301.693994	1250.329102	6498.445313
592.991757	-2301.693994	1249.241211	6561.386230
592.991757	-2301.693994	1248.154297	6525.428223
592.991757	-2301.693994	1247.066406	6415.924316
592.991757	-2301.693994	1245.979492	6465.049805
592.991757	-2301.693994	1244.890625	6525.640625
592.991757	-2301.693994	1243.802734	6554.042480
592.991757	-2301.693994	1242.713867	6479.078125
592.991757	-2301.693994	1241.625000	6495.995117
592.991757	-2301.693994	1240.536133	6409.596680
592.991757	-2301.693994	1239.447266	6332.417480
592.991757	-2301.693994	1238.357422	6234.620117
592.991757	-2301.693994	1237.267578	6368.575195
592.991757	-2301.693994	1236.177734	6341.915039
592.991757	-2301.693994	1235.087891	6287.748047
592.991757	-2301.693994	1233.997070	6329.894531
592.991757	-2301.693994	1232.906250	6151.980469
592.991757	-2301.693994	1231.815430	6320.173340
592.991757	-2301.693994	1230.724609	6238.564453
592.991757	-2301.693994	1229.632813	6225.707520
592.991757	-2301.693994	1228.541016	6205.985840
592.991757	-2301.693994	1227.449219	6257.247070
592.991757	-2301.693994	1226.357422	6139.098633
592.991757	-2301.693994	1225.264648	6089.657227
592.991757	-2301.693994	1224.171875	6209.546387
592.991757	-2301.693994	1223.079102	6013.712891
592.991757	-2301.693994	1221.986328	6099.259766
592.991757	-2301.693994	1220.892578	6052.155273
592.991757	-2301.693994	1219.798828	6046.217285
592.991757	-2301.693994	1218.705078	6001.429688
592.991757	-2301.693994	1217.611328	5913.249023
592.991757	-2301.693994	1216.516602	6026.130371
592.991757	-2301.693994	1215.421875	5940.266113
592.991757	-2301.693994	1214.327148	6018.839355
592.991757	-2301.693994	1213.231445	5912.468750
592.991757	-2301.693994	1212.136719	5972.752930
592.991757	-2301.693994	1211.041016	5939.456055
592.991757	-2301.693994	1209.945313	6072.705566
592.991757	-2301.693994	1208.848633	6085.014648
592.991757	-2301.693994	1207.752930	6031.190430
592.991757	-2301.693994	1206.656250	5984.229492
592.991757	-2301.693994	1205.558594	6030.735352
592.991757	-2301.693994	1204.461914	5988.351563
592.991757	-2301.693994	1203.364258	6182.914063
592.991757	-2301.693994	1202.266602	6120.014648
592.991757	-2301.693994	1201.168945	6075.359375
592.991757	-2301.693994	1200.071289	5964.702637
592.991757	-2301.693994	1198.972656	6147.710449
592.991757	-2301.693994	1197.874023	5968.818359
592.991757	-2301.693994	1196.775391	6010.687500
592.991757	-2301.693994	1195.675781	5993.398438
592.991757	-2301.693994	1194.576172	6073.899414
592.991757	-2301.693994	1193.476563	5922.465820
592.991757	-2301.693994	1192.376953	5923.390137
592.991757	-2301.693994	1191.276367	5926.585938
592.991757	-2301.693994	1190.176758	6102.447266
592.991757	-2301.693994	1189.076172	5935.241699
592.991757	-2301.693994	1187.974609	6024.724609
592.991757	-2301.693994	1186.874023	5941.616211
592.991757	-2301.693994	1185.772461	6069.643066
592.991757	-2301.693994	1184.670898	5970.675293
592.991757	-2301.693994	1183.569336	6046.452148
592.991757	-2301.693994	1182.466797	5956.606445
592.991757	-2301.693994	1181.364258	5989.262207
592.991757	-2301.693994	1180.261719	5978.823730
592.991757	-2301.693994	1179.159180	5904.919922
592.991757	-2301.693994	1178.055664	6021.414063
592.991757	-2301.693994	1176.952148	6001.910156
592.991757	-2301.693994	1175.848633	6018.657715
592.991757	-2301.693994	1174.745117	6067.102051
592.991757	-2301.693994	1173.640625	6110.995605
592.991757	-2301.693994	1172.536133	6048.476074
592.991757	-2301.693994	1171.431641	6139.877930
592.991757	-2301.693994	1170.326172	6072.853516
592.991757	-2301.693994	1169.221680	6168.730469
592.991757	-2301.693994	1168.116211	6076.851074
592.991757	-2301.693994	1167.010742	6242.773926
592.991757	-2301.693994	1165.904297	6180.305176
592.991757	-2301.693994	1164.797852	6194.705078
592.991757	-2301.693994	1163.691406	6292.698730
592.991757	-2301.693994	1162.584961	6187.338867
592.991757	-2301.693994	1161.478516	6183.656738
592.991757	-2301.693994	1160.371094	6175.459961
592.991757	-2301.693994	1159.263672	6119.859863
592.991757	-2301.693994	1158.155273	6337.369629
592.991757	-2301.693994	1157.047852	6087.707520
592.991757	-2301.693994	1155.939453	6264.517090
592.991757	-2301.693994	1154.831055	6134.518555
592.991757	-2301.693994	1153.722656	6081.242188
592.991757	-2301.693994	1152.613281	6059.550293
592.991757	-2301.693994	1151.503906	6159.571289
592.991757	-2301.693994	1150.394531	6034.219727
592.991757	-2301.693994	1149.285156	6125.187988
592.991757	-2301.693994	1148.174805	5988.639160
592.991757	-2301.693994	1147.064453	6032.288574
592.991757	-2301.693994	1145.954102	6051.153809
592.991757	-2301.693994	1144.842773	6121.774414
592.991757	-2301.693994	1143.732422	6073.104492
592.991757	-2301.693994	1142.621094	6040.203613
592.991757	-2301.693994	1141.508789	6090.533203
592.991757	-2301.693994	1140.397461	6127.347656
592.991757	-2301.693994	1139.285156	6150.655273
592.991757	-2301.693994	1138.172852	6113.268555
592.991757	-2301.693994	1137.060547	6172.519043
592.991757	-2301.693994	1135.947266	6173.332520
592.991757	-2301.693994	1134.834961	6151.685547
592.991757	-2301.693994	1133.720703	6136.783691
592.991757	-2301.693994	1132.607422	6225.154297
592.991757	-2301.693994	1131.493164	6172.085938
592.991757	-2301.693994	1130.379883	6253.673828
592.991757	-2301.693994	1129.264648	6153.511230
592.991757	-2301.693994	1128.150391	6347.205078
592.991757	-2301.693994	1127.035156	6303.123047
592.991757	-2301.693994	1125.919922	6297.171387
592.991757	-2301.693994	1124.804688	6208.294434
592.991757	-2301.693994	1123.689453	6386.106445
592.991757	-2301.693994	1122.573242	6339.812500
592.991757	-2301.693994	1121.457031	6268.902832
592.991757	-2301.693994	1120.340820	6305.505371
592.991757	-2301.693994	1119.223633	6330.896484
592.991757	-2301.693994	1118.106445	6208.559082
592.991757	-2301.693994	1116.989258	6097.465332
592.991757	-2301.693994	1115.872070	6185.522949
592.991757	-2301.693994	1114.753906	6266.829102
592.991757	-2301.693994	1113.635742	6442.009277
592.991757	-2301.693994	1112.517578	6409.204102
592.991757	-2301.693994	1111.399414	6418.877930
592.991757	-2301.693994	1110.280273	6441.953125
592.991757	-2301.693994	1109.161133	6366.723633
592.991757	-2301.693994	1108.041992	6407.665527
592.991757	-2301.693994	1106.921875	6551.300293
592.991757	-2301.693994	1105.802734	6665.846191
592.991757	-2301.693994	1104.682617	6575.007813
592.991757	-2301.693994	1103.561523	6571.231934
592.991757	-2301.693994	1102.441406	6585.303711
592.991757	-2301.693994	1101.320313	6641.742676
592.991757	-2301.693994	1100.199219	6731.600586
592.991757	-2301.693994	1099.077148	6758.997070
592.991757	-2301.693994	1097.956055	6708.375000
592.991757	-2301.693994	1096.833984	6642.178711
592.991757	-2301.693994	1095.711914	6789.866211
592.991757	-2301.693994	1094.588867	6819.446289
592.991757	-2301.693994	1093.465820	6748.813965
592.991757	-2301.693994	1092.342773	6816.230469
592.991757	-2301.693994	1091.219727	6928.125488
592.991757	-2301.693994	1090.096680	6964.315430
592.991757	-2301.693994	1088.972656	7036.079102
592.991757	-2301.693994	1087.848633	7061.104980
592.991757	-2301.693994	1086.723633	7201.736328
592.991757	-2301.693994	1085.599609	7031.091797
592.991757	-2301.693994	1084.474609	7227.221680
592.991757	-2301.693994	1083.349609	7374.376953
592.991757	-2301.693994	1082.223633	7274.892090
592.991757	-2301.693994	1081.097656	7375.326660
592.991757	-2301.693994	1079.971680	7591.167480
592.991757	-2301.693994	1078.845703	7609.346191
592.991757	-2301.693994	1077.719727	7725.161133
592.991757	-2301.693994	1076.592773	7916.355957
592.991757	-2301.693994	1075.465820	7903.386230
592.991757	-2301.693994	1074.337891	7972.474609
592.991757	-2301.693994	1073.210938	8074.786133
592.991757	-2301.693994	1072.083008	7981.986328
592.991757	-2301.693994	1070.954102	7966.792480
592.991757	-2301.693994	1069.826172	8055.734863
592.991757	-2301.693994	1068.697266	8056.033203
592.991757	-2301.693994	1067.568359	7941.176270
592.991757	-2301.693994	1066.439453	7808.660645
592.991757	-2301.693994	1065.309570	7612.017578
592.991757	-2301.693994	1064.180664	7630.119629
592.991757	-2301.693994	1063.049805	7471.220703
592.991757	-2301.693994	1061.919922	7429.625000
592.991757	-2301.693994	1060.789063	7339.398438
592.991757	-2301.693994	1059.658203	7399.548340
592.991757	-2301.693994	1058.527344	7265.164551
592.991757	-2301.693994	1057.396484	7287.735352
592.991757	-2301.693994	1056.264648	7208.670410
592.991757	-2301.693994	1055.132813	7189.276367
592.991757	-2301.693994	1054.000000	7097.021484
592.991757	-2301.693994	1052.868164	7132.852051
592.991757	-2301.693994	1051.735352	7124.522461
592.991757	-2301.693994	1050.602539	7034.552734
592.991757	-2301.693994	1049.468750	7231.410156
592.991757	-2301.693994	1048.335938	7159.099121
592.991757	-2301.693994	1047.202148	7007.442871
592.991757	-2301.693994	1046.067383	7045.440918
592.991757	-2301.693994	1044.933594	7116.478516
592.991757	-2301.693994	1043.798828	7121.378906
592.991757	-2301.693994	1042.664063	7159.318848
592.991757	-2301.693994	1041.528320	7179.620605
592.991757	-2301.693994	1040.393555	7206.516602
592.991757	-2301.693994	1039.257813	7411.702637
592.991757	-2301.693994	1038.122070	7242.661133
592.991757	-2301.693994	1036.985352	7467.538574
592.991757	-2301.693994	1035.848633	7441.542480
592.991757	-2301.693994	1034.711914	7499.125488
592.991757	-2301.693994	1033.575195	7655.617676
592.991757	-2301.693994	1032.437500	7614.204102
592.991757	-2301.693994	1031.299805	7575.007324
592.991757	-2301.693994	1030.162109	7566.586426
592.991757	-2301.693994	1029.023438	7443.950195
592.991757	-2301.693994	1027.885742	7323.567871
592.991757	-2301.693994	1026.747070	7405.223633
592.991757	-2301.693994	1025.607422	7355.143555
592.991757	-2301.693994	1024.468750	7265.587891
592.991757	-2301.693994	1023.329102	7443.723633
592.991757	-2301.693994	1022.189453	7417.793457
592.991757	-2301.693994	1021.048828	7365.561035
592.991757	-2301.693994	1019.908203	7225.662598
592.991757	-2301.693994	1018.767578	7197.608887
592.991757	-2301.693994	1017.626953	7215.582031
592.991757	-2301.693994	1016.485352	7321.171875
592.991757	-2301.693994	1015.344727	7157.324219
592.991757	-2301.693994	1014.202148	7278.201172
592.991757	-2301.693994	1013.060547	7296.132813
592.991757	-2301.693994	1011.917969	7158.668945
592.991757	-2301.693994	1010.775391	7106.602539
592.991757	-2301.693994	1009.632813	7078.622070
592.991757	-2301.693994	1008.489258	7208.113281
592.991757	-2301.693994	1007.345703	7210.729004
592.991757	-2301.693994	1006.202148	7386.025391
592.991757	-2301.693994	1005.058594	7744.802246
592.991757	-2301.693994	1003.914063	7860.890625
592.991757	-2301.693994	1002.769531	7889.550781
592.991757	-2301.693994	1001.625000	7828.662598
592.991757	-2301.693994	1000.479492	7625.895020
592.991757	-2301.693994	999.333984	7578.194336
592.991757	-2301.693994	998.188477	7307.938965
592.991757	-2301.693994	997.042969	7284.333984
592.991757	-2301.693994	995.896484	7149.505859
592.991757	-2301.693994	994.750000	7058.352539
592.991757	-2301.693994	993.603516	7302.961426
592.991757	-2301.693994	992.456055	7163.864746
592.991757	-2301.693994	991.308594	7273.231934
592.991757	-2301.693994	990.161133	7315.014160
592.991757	-2301.693994	989.012695	7345.885742
592.991757	-2301.693994	987.865234	7376.740723
592.991757	-2301.693994	986.716797	7424.993164
592.991757	-2301.693994	985.567383	7303.473633
592.991757	-2301.693994	984.418945	7351.718262
592.991757	-2301.693994	983.269531	7408.638184
592.991757	-2301.693994	982.119141	7454.655762
592.991757	-2301.693994	980.969727	7511.519531
592.991757	-2301.693994	979.819336	7527.056641
592.991757	-2301.693994	978.668945	7742.503418
592.991757	-2301.693994	977.518555	7851.390137
592.991757	-2301.693994	976.367188	8214.340820
592.991757	-2301.693994	975.215820	8477.225586
592.991757	-2301.693994	974.064453	8620.580078
592.991757	-2301.693994	972.912109	9150.183594
592.991757	-2301.693994	971.760742	9510.279297
592.991757	-2301.693994	970.607422	10288.864258
592.991757	-2301.693994	969.455078	10828.501953
592.991757	-2301.693994	968.301758	11736.462891
592.991757	-2301.693994	967.148438	12435.877930
592.991757	-2301.693994	965.995117	13553.198242
592.991757	-2301.693994	964.840820	14609.297852
592.991757	-2301.693994	963.687500	15482.922852
592.991757	-2301.693994	962.532227	16288.980469
592.991757	-2301.693994	961.377930	16917.105469
592.991757	-2301.693994	960.222656	17094.714844
592.991757	-2301.693994	959.067383	16958.466797
592.991757	-2301.693994	957.912109	16569.169922
592.991757	-2301.693994	956.755859	15769.128906
592.991757	-2301.693994	955.599609	15198.684570
592.991757	-2301.693994	954.443359	14178.878906
592.991757	-2301.693994	953.286133	13416.762695
592.991757	-2301.693994	952.129883	12605.328125
592.991757	-2301.693994	950.972656	11997.347656
592.991757	-2301.693994	949.814453	11327.040039
592.991757	-2301.693994	948.656250	10743.427734
592.991757	-2301.693994	947.498047	10352.211914
592.991757	-2301.693994	946.339844	9864.081055
592.991757	-2301.693994	945.180664	9578.991211
592.991757	-2301.693994	944.022461	9026.587891
592.991757	-2301.693994	942.862305	9089.018555
592.991757	-2301.693994	941.703125	9019.912109
592.991757	-2301.693994	940.542969	8739.622070
592.991757	-2301.693994	939.382813	8534.886719
592.991757	-2301.693994	938.222656	8347.486328
592.991757	-2301.693994	937.061523	8233.401367
592.991757	-2301.693994	935.900391	8192.578125
592.991757	-2301.693994	934.739258	8065.671875
592.991757	-2301.693994	933.577148	7824.770020
592.991757	-2301.693994	932.415039	7859.377930
592.991757	-2301.693994	931.252930	7715.438965
592.991757	-2301.693994	930.090820	7565.119141
592.991757	-2301.693994	928.927734	7702.955566
592.991757	-2301.693994	927.764648	7653.729980
592.991757	-2301.693994	926.600586	7615.271973
592.991757	-2301.693994	925.437500	7600.461914
592.991757	-2301.693994	924.273438	7611.430664
592.991757	-2301.693994	923.108398	7437.737305
592.991757	-2301.693994	921.944336	7487.377930
592.991757	-2301.693994	920.779297	7539.137695
592.991757	-2301.693994	919.614258	7344.134766
592.991757	-2301.693994	918.448242	7346.567383
592.991757	-2301.693994	917.283203	7346.853027
592.991757	-2301.693994	916.116211	7239.941895
592.991757	-2301.693994	914.950195	7242.395020
592.991757	-2301.693994	913.783203	7311.272461
592.991757	-2301.693994	912.616211	7294.422852
592.991757	-2301.693994	911.449219	7234.746094
592.991757	-2301.693994	910.282227	7292.863281
592.991757	-2301.693994	909.114258	7220.370605
592.991757	-2301.693994	907.945313	7197.135254
592.991757	-2301.693994	906.777344	7071.211914
592.991757	-2301.693994	905.608398	7135.723145
592.991757	-2301.693994	904.439453	7080.446289
592.991757	-2301.693994	903.270508	7226.160156
592.991757	-2301.693994	902.100586	7115.313965
592.991757	-2301.693994	900.930664	7130.595215
592.991757	-2301.693994	899.759766	7133.050293
592.991757	-2301.693994	898.589844	7126.959473
592.991757	-2301.693994	897.418945	7020.516113
592.991757	-2301.693994	896.248047	7097.706055
592.991757	-2301.693994	895.076172	7130.038574
592.991757	-2301.693994	893.904297	7115.415039
592.991757	-2301.693994	892.732422	7181.852051
592.991757	-2301.693994	891.559570	7026.477051
592.991757	-2301.693994	890.387695	7184.572754
592.991757	-2301.693994	889.214844	7163.550293
592.991757	-2301.693994	888.041016	7148.930176
592.991757	-2301.693994	886.867188	7255.741699
592.991757	-2301.693994	885.693359	7221.935059
592.991757	-2301.693994	884.519531	7422.354980
592.991757	-2301.693994	883.344727	7222.485352
592.991757	-2301.693994	882.169922	7248.295410
592.991757	-2301.693994	880.995117	7220.902344
592.991757	-2301.693994	879.820313	7340.284668
592.991757	-2301.693994	878.644531	7300.120117
592.991757	-2301.693994	877.468750	7283.359863
592.991757	-2301.693994	876.291992	7387.752441
592.991757	-2301.693994	875.115234	7419.846191
592.991757	-2301.693994	873.938477	7369.075195
592.991757	-2301.693994	872.761719	7337.442871
592.991757	-2301.693994	871.583984	7195.420410
592.991757	-2301.693994	870.406250	7189.317383
592.991757	-2301.693994	869.228516	7282.953613
592.991757	-2301.693994	868.049805	7232.276367
592.991757	-2301.693994	866.871094	7393.721680
592.991757	-2301.693994	865.692383	7241.258789
592.991757	-2301.693994	864.512695	7262.703125
592.991757	-2301.693994	863.333008	7254.464355
592.991757	-2301.693994	862.153320	7265.297363
592.991757	-2301.693994	860.972656	7426.518066
592.991757	-2301.693994	859.791992	7422.474121
592.991757	-2301.693994	858.611328	7287.168945
592.991757	-2301.693994	857.430664	7338.191406
592.991757	-2301.693994	856.249023	7503.451660
592.991757	-2301.693994	855.067383	7448.614746
592.991757	-2301.693994	853.884766	7531.275391
592.991757	-2301.693994	852.703125	7345.364746
592.991757	-2301.693994	851.519531	7413.208984
592.991757	-2301.693994	850.336914	7478.903809
592.991757	-2301.693994	849.153320	7324.838379
592.991757	-2301.693994	847.969727	7316.592285
592.991757	-2301.693994	846.786133	7352.693359
592.991757	-2301.693994	845.601563	7405.662598
592.991757	-2301.693994	844.416992	7348.854980
592.991757	-2301.693994	843.232422	7372.254883
592.991757	-2301.693994	842.046875	7450.486328
592.991757	-2301.693994	840.862305	7433.775879
592.991757	-2301.693994	839.675781	7469.780762
592.991757	-2301.693994	838.490234	7590.076172
592.991757	-2301.693994	837.303711	7518.549805
592.991757	-2301.693994	836.117188	7573.459473
592.991757	-2301.693994	834.929688	7624.126953
592.991757	-2301.693994	833.742188	7636.865723
592.991757	-2301.693994	832.554688	7573.816406
592.991757	-2301.693994	831.367188	7382.426758
592.991757	-2301.693994	830.178711	7355.240234
592.991757	-2301.693994	828.990234	7405.890625
592.991757	-2301.693994	827.800781	7204.177246
592.991757	-2301.693994	826.612305	7372.563477
592.991757	-2301.693994	825.422852	7278.147949
592.991757	-2301.693994	824.232422	7156.466309
592.991757	-2301.693994	823.042969	7102.065430
592.991757	-2301.693994	821.851563	7184.193848
592.991757	-2301.693994	820.661133	7268.376953
592.991757	-2301.693994	819.469727	7140.523438
592.991757	-2301.693994	818.278320	7105.063477
592.991757	-2301.693994	817.086914	7201.783203
592.991757	-2301.693994	815.895508	7342.492676
592.991757	-2301.693994	814.703125	7384.581055
592.991757	-2301.693994	813.509766	7533.549316
592.991757	-2301.693994	812.317383	7611.187012
592.991757	-2301.693994	811.124023	7422.712402
592.991757	-2301.693994	809.929688	7739.105957
592.991757	-2301.693994	808.736328	7351.771484
592.991757	-2301.693994	807.541992	7496.356445
592.991757	-2301.693994	806.347656	7276.713867
592.991757	-2301.693994	805.152344	7260.134766
592.991757	-2301.693994	803.957031	7103.419434
592.991757	-2301.693994	802.761719	6984.426758
592.991757	-2301.693994	801.566406	6921.941406
592.991757	-2301.693994	800.370117	6895.018555
592.991757	-2301.693994	799.172852	6891.092773
592.991757	-2301.693994	797.976563	6847.478027
592.991757	-2301.693994	796.779297	6854.005859
592.991757	-2301.693994	795.582031	6695.592285
592.991757	-2301.693994	794.383789	6789.818848
592.991757	-2301.693994	793.186523	6798.438965
592.991757	-2301.693994	791.987305	6729.866211
592.991757	-2301.693994	790.789063	6715.554199
592.991757	-2301.693994	789.589844	6732.522949
592.991757	-2301.693994	788.390625	6812.015625
592.991757	-2301.693994	787.191406	6766.429688
592.991757	-2301.693994	785.991211	6814.617188
592.991757	-2301.693994	784.791016	6827.370605
592.991757	-2301.693994	783.589844	6690.194824
592.991757	-2301.693994	782.388672	6823.708496
592.991757	-2301.693994	781.187500	6794.822266
592.991757	-2301.693994	779.986328	6801.319336
592.991757	-2301.693994	778.784180	6751.651855
592.991757	-2301.693994	777.582031	6776.869141
592.991757	-2301.693994	776.379883	6814.544434
592.991757	-2301.693994	775.176758	6798.162109
592.991757	-2301.693994	773.973633	6839.964355
592.991757	-2301.693994	772.769531	6777.882813
592.991757	-2301.693994	771.566406	6580.852051
592.991757	-2301.693994	770.361328	6776.303711
592.991757	-2301.693994	769.157227	6591.830078
592.991757	-2301.693994	767.952148	6612.874512
592.991757	-2301.693994	766.747070	6739.700195
592.991757	-2301.693994	765.541992	6847.791504
592.991757	-2301.693994	764.335938	6860.452148
592.991757	-2301.693994	763.129883	6746.669434
592.991757	-2301.693994	761.922852	6894.037598
592.991757	-2301.693994	760.716797	6854.881836
592.991757	-2301.693994	759.509766	6813.674316
592.991757	-2301.693994	758.301758	6799.403809
592.991757	-2301.693994	757.093750	6766.510742
592.991757	-2301.693994	755.885742	6783.297852
592.991757	-2301.693994	754.677734	6853.862793
592.991757	-2301.693994	753.468750	6847.863770
592.991757	-2301.693994	752.259766	6699.198242
592.991757	-2301.693994	751.049805	6746.985840
592.991757	-2301.693994	749.840820	6774.081055
592.991757	-2301.693994	748.629883	6799.093750
592.991757	-2301.693994	747.419922	6636.139648
592.991757	-2301.693994	746.208984	6621.941406
592.991757	-2301.693994	744.998047	6752.248535
592.991757	-2301.693994	743.787109	6731.832520
592.991757	-2301.693994	742.575195	6802.204102
592.991757	-2301.693994	741.363281	6699.279297
592.991757	-2301.693994	740.150391	6827.354980
592.991757	-2301.693994	738.937500	6763.644043
592.991757	-2301.693994	737.724609	6683.479004
592.991757	-2301.693994	736.511719	6722.855957
592.991757	-2301.693994	735.297852	6710.715332
592.991757	-2301.693994	734.083984	6760.355957
592.991757	-2301.693994	732.869141	6735.856934
592.991757	-2301.693994	731.654297	6876.015625
592.991757	-2301.693994	730.439453	6876.185059
592.991757	-2301.693994	729.223633	6674.772949
592.991757	-2301.693994	728.007813	6841.561523
592.991757	-2301.693994	726.791992	6601.206055
592.991757	-2301.693994	725.576172	6868.626953
592.991757	-2301.693994	724.359375	6685.924316
