#Wave		#Intensity
1819.763672	1609.823853
1818.799805	1646.116211
1817.834961	1674.265259
1816.870117	1676.490234
1815.905273	1683.895630
1814.939453	1701.657837
1813.974609	1659.854370
1813.008789	1638.780396
1812.042969	1674.659302
1811.077148	1671.705933
1810.110352	1736.021362
1809.143555	1681.322876
1808.177734	1766.296875
1807.209961	1641.806519
1806.243164	1675.052856
1805.275391	1656.596924
1804.308594	1625.229858
1803.340820	1723.039917
1802.372070	1676.175781
1801.404297	1717.125000
1800.435547	1690.935303
1799.467773	1662.176025
1798.498047	1726.325684
1797.529297	1746.589111
1796.560547	1748.788574
1795.590820	1707.147827
1794.621094	1709.354858
1793.651367	1739.915039
1792.681641	1752.422363
1791.710938	1775.230347
1790.740234	1800.604492
1789.769531	1733.252686
1788.798828	1781.798462
1787.827148	1714.480103
1786.856445	1698.665527
1785.884766	1749.760498
1784.913086	1764.816650
1783.941406	1738.713257
1782.968750	1717.764160
1781.996094	1825.371582
1781.023438	1799.271973
1780.050781	1716.647461
1779.078125	1762.522583
1778.104492	1757.003296
1777.130859	1700.123291
1776.157227	1823.000244
1775.183594	1773.831665
1774.209961	1814.511719
1773.235352	1803.855347
1772.260742	1870.165161
1771.286133	1805.639893
1770.310547	1738.578369
1769.335938	1692.055542
1768.360352	1771.147949
1767.384766	1783.578247
1766.409180	1801.127319
1765.433594	1836.599365
1764.457031	1738.886597
1763.480469	1910.057861
1762.503906	1814.931152
1761.527344	1901.555420
1760.549805	1878.116455
1759.573242	1849.571167
1758.595703	1859.402710
1757.618164	1825.759644
1756.639648	1784.461426
1755.662109	1863.312134
1754.683594	1888.464844
1753.705078	1857.399292
1752.726563	1805.912476
1751.747070	1933.212524
1750.767578	1932.796143
1749.789063	1883.879028
1748.809570	1954.933105
1747.829102	1893.274292
1746.849609	1992.357178
1745.869141	1910.312988
1744.888672	1994.049805
1743.908203	1993.620972
1742.927734	2069.657227
1741.946289	1987.666992
1740.964844	2053.480957
1739.983398	2032.661987
1739.001953	2108.624512
1738.019531	2080.164307
1737.038086	2064.444092
1736.055664	2142.895996
1735.073242	2129.713379
1734.089844	2159.783203
1733.107422	2230.533691
1732.124023	2174.112793
1731.140625	2224.491699
1730.157227	2287.557617
1729.173828	2226.078369
1728.189453	2301.820068
1727.205078	2319.106934
1726.220703	2318.609619
1725.236328	2307.956543
1724.250977	2363.307861
1723.266602	2421.173340
1722.281250	2385.131348
1721.295898	2382.083496
1720.309570	2356.210205
1719.324219	2218.775391
1718.337891	2279.144775
1717.351563	2458.617432
1716.365234	2328.851074
1715.377930	2209.274658
1714.391602	2317.722168
1713.404297	2165.276855
1712.416992	2250.899658
1711.428711	2275.731934
1710.441406	2191.726563
1709.453125	2173.545654
1708.464844	2236.325195
1707.476563	2268.727051
1706.488281	2359.275146
1705.499023	2214.665771
1704.509766	2231.885742
1703.520508	2383.033203
1702.531250	2289.041992
1701.541016	2258.240967
1700.551758	2371.404053
1699.561523	2333.023682
1698.571289	2448.646973
1697.580078	2400.170898
1696.589844	2384.518555
1695.598633	2444.555664
1694.607422	2469.256104
1693.616211	2471.250732
1692.625000	2644.682373
1691.632813	2603.788330
1690.640625	2580.552002
1689.648438	2683.302246
1688.656250	2687.767822
1687.663086	2735.045166
1686.669922	2663.959961
1685.677734	2741.430908
1684.683594	2675.408203
1683.690430	2785.555420
1682.696289	2727.098877
1681.703125	2799.459229
1680.708984	2801.377441
1679.713867	2805.808594
1678.719727	2792.642578
1677.724609	2787.021240
1676.729492	2804.015381
1675.734375	2876.266846
1674.739258	2767.660156
1673.743164	2925.260742
1672.748047	2932.168945
1671.751953	2893.896240
1670.755859	2858.149170
1669.758789	2915.243408
1668.762695	2932.180664
1667.765625	2914.002441
1666.768555	2898.338867
1665.770508	2784.921387
1664.773438	2834.451660
1663.775391	2833.848389
1662.777344	2813.204834
1661.779297	2797.579102
1660.781250	2656.759033
1659.782227	2723.787842
1658.783203	2760.752930
1657.784180	2765.170410
1656.785156	2727.054199
1655.786133	2728.975586
1654.786133	2658.372314
1653.786133	2680.309814
1652.786133	2694.738281
1651.786133	2714.159424
1650.785156	2646.117676
1649.784180	2610.580811
1648.784180	2759.884033
1647.782227	2699.366943
1646.781250	2676.324219
1645.779297	2695.723877
1644.777344	2740.070068
1643.775391	2791.882568
1642.773438	2886.078613
1641.771484	2865.514160
1640.768555	2879.865723
1639.765625	2939.082520
1638.762695	2913.534912
1637.758789	2885.506348
1636.755859	2894.858643
1635.751953	2824.502930
1634.748047	2724.294678
1633.744141	2678.901855
1632.739258	2596.190918
1631.735352	2645.412109
1630.730469	2634.898193
1629.725586	2564.686768
1628.719727	2571.603271
1627.714844	2469.110352
1626.708984	2528.250000
1625.703125	2465.576660
1624.697266	2504.812256
1623.690430	2422.295410
1622.684570	2459.039307
1621.677734	2354.216797
1620.670898	2443.098877
1619.663086	2459.956543
1618.656250	2444.543945
1617.648438	2396.881592
1616.640625	2468.313721
1615.632813	2452.908936
1614.625000	2368.079834
1613.616211	2414.681152
1612.607422	2520.749023
1611.598633	2520.214355
1610.589844	2524.634766
1609.580078	2442.356934
1608.571289	2587.953125
1607.561523	2686.443359
1606.551758	2688.349121
1605.541016	2856.074219
1604.531250	3093.011719
1603.520508	3161.624512
1602.509766	3247.521484
1601.499023	3162.756348
1600.487305	3176.919189
1599.475586	2946.369385
1598.463867	2775.227295
1597.452148	2707.928955
1596.440430	2613.486328
1595.427734	2566.008057
1594.416016	2444.474609
1593.403320	2448.893555
1592.389648	2406.416016
1591.376953	2410.841064
1590.363281	2439.934570
1589.349609	2427.084229
1588.335938	2433.967773
1587.322266	2458.106445
1586.307617	2462.515137
1585.293945	2402.845947
1584.279297	2498.429932
1583.263672	2337.778076
1582.249023	2389.003174
1581.233398	2442.668457
1580.217773	2415.070313
1579.202148	2426.864502
1578.186523	2345.143555
1577.170898	2315.122803
1576.154297	2322.010986
1575.137695	2380.540283
1574.121094	2333.319824
1573.103516	2298.410156
1572.086914	2315.126465
1571.069336	2393.264160
1570.051758	2424.692627
1569.033203	2276.812012
1568.015625	2435.942139
1566.997070	2420.695068
1565.978516	2407.908936
1564.959961	2375.495850
1563.941406	2345.549805
1562.921875	2318.069336
1561.902344	2378.889160
1560.882813	2385.740479
1559.863281	2387.685791
1558.842773	2394.531982
1557.822266	2376.871094
1556.801758	2322.469971
1555.781250	2363.615967
1554.760742	2443.925537
1553.739258	2347.923096
1552.717773	2305.812500
1551.696289	2300.428711
1550.674805	2366.002686
1549.653320	2365.500488
1548.630859	2401.684082
1547.608398	2318.038086
1546.585938	2368.884033
1545.562500	2299.945068
1544.540039	2370.322266
1543.516602	2362.489746
1542.493164	2393.741943
1541.469727	2327.297607
1540.445313	2321.920410
1539.420898	2460.566650
1538.396484	2408.793213
1537.372070	2388.761719
1536.347656	2324.827881
1535.322266	2356.040771
1534.296875	2323.840576
1533.271484	2364.791992
1532.246094	2393.538574
1531.219727	2356.476807
1530.194336	2353.539795
1529.167969	2287.271729
1528.140625	2330.621826
1527.114258	2320.387451
1526.086914	2278.511230
1525.060547	2360.775879
1524.032227	2289.709229
1523.004883	2410.860352
1521.977539	2315.490723
1520.949219	2385.518555
1519.920898	2416.617188
1518.892578	2350.474854
1517.863281	2340.254395
1516.834961	2356.764404
1515.805664	2331.971924
1514.776367	2401.906006
1513.746094	2435.388916
1512.716797	2422.732910
1511.686523	2371.249023
1510.656250	2361.038574
1509.625977	2452.725830
1508.594727	2408.544678
1507.564453	2425.007080
1506.533203	2392.972900
1505.501953	2494.270508
1504.469727	2515.550781
1503.438477	2425.366455
1502.406250	2373.979248
1501.374023	2545.429688
1500.341797	2433.503662
1499.308594	2403.935059
1498.276367	2534.122803
1497.243164	2620.697754
1496.209961	2533.043701
1495.175781	2626.838135
1494.142578	2587.585693
1493.108398	2632.972412
1492.074219	2663.835938
1491.039063	2614.933350
1490.004883	2607.127197
1488.969727	2577.583008
1487.934570	2663.981201
1486.899414	2629.607666
1485.864258	2715.957764
1484.828125	2734.687988
1483.791992	2763.062744
1482.755859	2745.584961
1481.719727	2843.896484
1480.682617	2768.530029
1479.646484	2845.094482
1478.609375	2779.401855
1477.571289	2875.211426
1476.534180	2886.645752
1475.496094	2953.482666
1474.458008	2950.443848
1473.419922	2930.549805
1472.381836	3127.339111
1471.342773	3030.391846
1470.304688	3145.255371
1469.265625	3216.762207
1468.225586	3179.993408
1467.186523	3309.180176
1466.146484	3462.355713
1465.106445	3447.192383
1464.066406	3482.506592
1463.026367	3534.625488
1461.985352	3442.580078
1460.944336	3612.375244
1459.903320	3582.786865
1458.862305	3596.425537
1457.820313	3636.461426
1456.778320	3647.682617
1455.736328	3721.279785
1454.694336	3653.318359
1453.652344	3841.998291
1452.609375	3860.357910
1451.566406	3782.820313
1450.523438	3849.118408
1449.480469	3771.615967
1448.436523	3857.052979
1447.392578	3844.250977
1446.348633	3709.326660
1445.304688	3763.597412
1444.260742	3679.013672
1443.215820	3673.438965
1442.170898	3579.340088
1441.125977	3537.907227
1440.080078	3391.262207
1439.035156	3388.143799
1437.989258	3387.417236
1436.943359	3372.350342
1435.896484	3278.435303
1434.850586	3327.901123
1433.803711	3234.035400
1432.756836	3269.161133
1431.709961	3177.735107
1430.662109	3231.953125
1429.614258	3195.462158
1428.566406	3201.933838
1427.518555	3194.089600
1426.470703	3229.177246
1425.421875	3288.093506
1424.373047	3208.718262
1423.324219	3300.980469
1422.275391	3219.253174
1421.225586	3235.237549
1420.175781	3236.923584
1419.125977	3181.456787
1418.076172	3152.202637
1417.026367	3175.327393
1415.975586	3229.379150
1414.924805	3173.960693
1413.874023	3180.413574
1412.822266	3234.428711
1411.771484	3186.177246
1410.719727	3225.903809
1409.667969	3194.311523
1408.615234	3229.266357
1407.563477	3228.570313
1406.510742	3299.129883
1405.458008	3298.418701
1404.405273	3264.469238
1403.351563	3206.797607
1402.297852	3244.075928
1401.244141	3345.398926
1400.190430	3311.467285
1399.136719	3270.435547
1398.082031	3236.534180
1397.027344	3223.982422
1395.972656	3166.404785
1394.917969	3288.937256
1393.862305	3115.286865
1392.806641	3192.775146
1391.750977	3142.356689
1390.695313	3148.780029
1389.638672	3226.209717
1388.583008	3119.020508
1387.526367	3082.856445
1386.468750	3169.711182
1385.412109	3131.186279
1384.354492	3182.526123
1383.296875	3089.644043
1382.239258	3079.521484
1381.181641	3085.943359
1380.123047	3153.783936
1379.064453	3032.645020
1378.005859	3010.735596
1376.947266	3102.156250
1375.887695	3068.438965
1374.828125	3155.087158
1373.768555	3121.372314
1372.708984	3021.625488
1371.648438	2971.445801
1370.588867	2970.800781
1369.528320	2913.581543
1368.466797	2969.510986
1367.406250	2940.591064
1366.344727	3005.912842
1365.283203	2833.328857
1364.221680	2917.482422
1363.160156	2926.265137
1362.097656	2859.725830
1361.035156	2894.401367
1359.972656	2964.351563
1358.909180	2998.988770
1357.846680	2871.347900
1356.783203	2844.860596
1355.719727	2971.174316
1354.656250	3001.078613
1353.591797	2925.238037
1352.527344	2995.072998
1351.462891	2952.145996
1350.398438	2951.502686
1349.333984	3056.498535
1348.268555	2999.503174
1347.203125	3022.314209
1346.137695	3014.616699
1345.071289	3065.559570
1344.004883	3074.270508
1342.939453	3092.354980
1341.872070	2976.825684
1340.805664	3001.953369
1339.738281	3017.697998
1338.670898	3033.435303
1337.603516	3053.849365
1336.536133	3116.399414
1335.467773	3059.536621
1334.399414	3110.355469
1333.331055	3140.093018
1332.262695	3064.546631
1331.193359	3108.313721
1330.125000	3095.941406
1329.055664	3076.560791
1327.985352	3092.247803
1326.916016	3145.316162
1325.845703	3163.316895
1324.775391	3104.229248
1323.705078	3175.941162
1322.633789	3130.884277
1321.563477	3127.863037
1320.492188	3082.835938
1319.419922	3110.157471
1318.348633	3167.791748
1317.276367	3104.127197
1316.204102	3087.123535
1315.131836	3102.762939
1314.059570	3183.653320
1312.986328	3096.738525
1311.913086	3077.420410
1310.839844	3067.427002
1309.766602	3148.252441
1308.692383	3196.448975
1307.618164	3116.608154
1306.543945	3129.884033
1305.469727	3143.153564
1304.394531	3265.740234
1303.319336	3297.577637
1302.244141	3213.150391
1301.168945	3165.951904
1300.092773	3204.761230
1299.017578	3187.789551
1297.941406	3277.680908
1296.864258	3218.896240
1295.788086	3269.267822
1294.710938	3289.438232
1293.633789	3219.084229
1292.556641	3332.071533
1291.478516	3329.014893
1290.400391	3293.488037
1289.322266	3283.484131
1288.244141	3366.217285
1287.166016	3407.192871
1286.086914	3462.053711
1285.007813	3401.050293
1283.928711	3430.408447
1282.848633	3443.542725
1281.769531	3456.670898
1280.689453	3455.904297
1279.608398	3469.022949
1278.528320	3424.292725
1277.447266	3435.098633
1276.366211	3508.342041
1275.285156	3477.504639
1274.204102	3513.718506
1273.122070	3515.248779
1272.040039	3572.233154
1270.958008	3559.888428
1269.875977	3549.858154
1268.792969	3546.759277
1267.709961	3585.215576
1266.626953	3512.867676
1265.542969	3613.617432
1264.459961	3624.347656
1263.375977	3469.003418
1262.291992	3429.028076
1261.207031	3492.817139
1260.123047	3535.832764
1259.038086	3454.387695
1257.953125	3490.479980
1256.867188	3680.885742
1255.782227	3675.457764
1254.696289	3619.379150
1253.610352	3745.174316
1252.523438	3631.569824
1251.437500	3653.766357
1250.350586	3657.549805
1249.263672	3718.826904
1248.175781	3740.987793
1247.088867	3737.851563
1246.000977	3658.872803
1244.913086	3720.092773
1243.824219	3749.123535
1242.736328	3663.303711
1241.647461	3683.148193
1240.558594	3719.053467
1239.468750	3605.754395
1238.379883	3646.249268
1237.290039	3693.608154
1236.200195	3545.984863
1235.109375	3597.930420
1234.019531	3592.536377
1232.928711	3623.818115
1231.837891	3542.797607
1230.746094	3475.559326
1229.655273	3456.452881
1228.563477	3405.293701
1227.471680	3292.340088
1226.378906	3353.401611
1225.287109	3402.992920
1224.194336	3242.067139
1223.101563	3367.146729
1222.007813	3405.265137
1220.915039	3351.908936
1219.821289	3294.004395
1218.726563	3183.561279
1217.632813	3228.540039
1216.538086	3239.232178
1215.443359	3142.578369
1214.348633	3237.767822
1213.253906	3284.974609
1212.158203	3268.255127
1211.062500	3310.869385
1209.966797	3294.150879
1208.871094	3245.509033
1207.774414	3404.389893
1206.677734	3337.506592
1205.581055	3325.353760
1204.483398	3377.009277
1203.386719	3339.792236
1202.289063	3288.926025
1201.190430	3249.468018
1200.092773	3373.943604
1198.994141	3339.035645
1197.895508	3283.662598
1196.796875	3282.916016
1195.698242	3314.012939
1194.598633	3390.575928
1193.499023	3269.308105
1192.399414	3250.379639
1191.298828	3276.908936
1190.198242	3303.425781
1189.097656	3257.243896
1187.997070	3351.879883
1186.895508	3296.625488
1185.794922	3363.969727
1184.692383	3390.434326
1183.590820	3444.112305
1182.489258	3329.909180
1181.386719	3438.003174
1180.284180	3360.129150
1179.180664	3293.624268
1178.078125	3320.065674
1176.974609	3412.201172
1175.871094	3352.524170
1174.766602	3340.432861
1173.663086	3332.875000
1172.558594	3323.056396
1171.453125	3347.188965
1170.348633	3405.249512
1169.243164	3508.524902
1168.137695	3462.487793
1167.032227	3488.825439
1165.926758	3451.855225
1164.820313	3444.281982
1163.713867	3454.787598
1162.607422	3465.288086
1161.500000	3606.774414
1160.392578	3572.074951
1159.285156	3456.123779
1158.177734	3602.026855
1157.070313	3488.377441
1155.961914	3541.714111
1154.853516	3522.854736
1153.744141	3499.493652
1152.635742	3485.160156
1151.526367	3349.128418
1150.416992	3470.031250
1149.306641	3309.284668
1148.197266	3389.599854
1147.086914	3503.653076
1145.976563	3408.292969
1144.865234	3457.019043
1143.753906	3393.214600
1142.643555	3448.669434
1141.531250	3418.632324
1140.419922	3330.145264
1139.307617	3462.008545
1138.195313	3375.799316
1137.083008	3482.872803
1135.969727	3410.176514
1134.856445	3420.614502
1133.743164	3471.465088
1132.629883	3461.678711
1131.515625	3436.185547
1130.401367	3448.849609
1129.287109	3524.321533
1128.172852	3521.258301
1127.057617	3551.830811
1125.942383	3510.651123
1124.827148	3507.591553
1123.711914	3526.940674
1122.595703	3548.520264
1121.479492	3605.924561
1120.363281	3575.973633
1119.246094	3534.842529
1118.128906	3538.493164
1117.011719	3450.399170
1115.894531	3572.632568
1114.776367	3477.861084
1113.658203	3595.557617
1112.540039	3621.542236
1111.421875	3524.589355
1110.302734	3568.452881
1109.183594	3543.043213
1108.064453	3620.382324
1106.944336	3630.697754
1105.825195	3694.584717
1104.705078	3662.471436
1103.583984	3567.895264
1102.463867	3709.828613
1101.342773	3740.180420
1100.221680	3681.327393
1099.099609	3720.587646
1097.978516	3773.200928
1096.856445	3792.366211
1095.734375	3795.928223
1094.611328	3839.576416
1093.488281	3876.523682
1092.365234	3726.461914
1091.242188	3856.890625
1090.119141	4040.657959
1088.995117	3866.192139
1087.871094	4016.509766
1086.746094	4026.677734
1085.622070	4105.750977
1084.497070	4053.664795
1083.372070	4097.143066
1082.246094	4347.186035
1081.120117	4348.376953
1079.994141	4180.824219
1078.868164	4439.546875
1077.742188	4640.445801
1076.615234	4472.940918
1075.488281	4527.333984
1074.360352	4528.476563
1073.233398	4538.486816
1072.105469	4508.592285
1070.977539	4540.761719
1069.848633	4568.483887
1068.719727	4556.321777
1067.590820	4471.085938
1066.461914	4401.387695
1065.333008	4477.809570
1064.203125	4297.495605
1063.073242	4380.541992
1061.942383	4310.928711
1060.812500	4327.590820
1059.681641	4074.524902
1058.549805	4212.799316
1057.418945	4147.709961
1056.287109	4005.327637
1055.155273	4108.178223
1054.023438	4155.774902
1052.890625	4132.703613
1051.757813	4169.234863
1050.625000	4108.657715
1049.492188	4127.527344
1048.358398	4005.233643
1047.224609	4112.317383
1046.090820	4029.765137
1044.956055	4291.065918
1043.821289	4166.644043
1042.686523	4300.018066
1041.551758	4627.134277
1040.416016	4542.352051
1039.280273	4576.479004
1038.144531	4579.778809
1037.007813	4561.073730
1035.872070	4667.759766
1034.734375	4554.476563
1033.597656	4562.172363
1032.459961	4640.203613
1031.323242	4564.365723
1030.184570	4565.459961
1029.046875	4505.050781
1027.908203	4517.137695
1026.769531	4564.345215
1025.630859	4486.418457
1024.491211	4505.081543
1023.351563	4392.104004
1022.211914	4323.046387
1021.072266	4179.466797
1019.931641	4185.029785
1018.791016	4148.946777
1017.649414	4187.381348
1016.508789	4094.356201
1015.367188	4113.072754
1014.225586	4059.522217
1013.083008	4043.211426
1011.941406	4057.547607
1010.798828	4122.199707
1009.655273	4175.882813
1008.512695	4358.568359
1007.369141	4650.483887
1006.225586	4979.416504
1005.081055	5725.587891
1003.937500	6370.892578
1002.792969	6421.759277
1001.647461	5985.626465
1000.502930	5420.896484
999.357422	4891.364746
998.211914	4700.321777
997.065430	4535.551270
995.918945	4540.983887
994.772461	4520.246582
993.625977	4551.838379
992.478516	4470.082031
991.332031	4388.364746
990.183594	4465.709961
989.036133	4440.656738
987.887695	4439.565918
986.739258	4397.115234
985.590820	4489.612793
984.441406	4503.738281
983.291992	4637.491211
982.142578	4614.602539
980.993164	4654.773926
979.842773	4686.229980
978.692383	4661.170898
977.541016	4933.756348
976.390625	5060.684570
975.239258	5204.920410
974.087891	5579.199219
972.935547	5888.181152
971.783203	6279.462402
970.630859	6805.044922
969.478516	7176.384766
968.325195	7903.125977
967.171875	8293.516602
966.018555	8969.773438
964.864258	9777.856445
963.709961	10431.747070
962.555664	10784.302734
961.401367	10898.533203
960.246094	11118.762695
959.090820	10901.771484
957.934570	10641.618164
956.779297	10225.869141
955.623047	9723.833984
954.466797	9269.604492
953.309570	8793.988281
952.152344	8335.892578
950.995117	7836.980957
949.837891	7387.988281
948.679688	7040.693848
947.521484	6831.716797
946.363281	6566.735840
945.204102	6263.051758
944.044922	6054.422363
942.885742	5817.863281
941.726563	5706.459473
940.566406	5547.694336
939.406250	5348.067383
938.245117	5152.848145
937.084961	5089.098633
935.923828	4945.715332
934.762695	4914.336914
933.600586	4771.067383
932.438477	4642.929688
931.276367	4510.553711
930.114258	4496.516113
928.951172	4536.231445
927.788086	4550.134277
926.624023	4392.125488
925.460938	4313.681152
924.296875	4280.377441
923.131836	4395.243652
921.967773	4471.412109
920.802734	4369.416992
919.637695	4246.016602
918.471680	4229.927734
917.306641	4228.857422
916.139648	4300.680176
914.973633	4269.583496
913.806641	4193.502930
912.639648	4149.594238
911.472656	4131.407715
910.304688	4160.335938
909.137695	4144.294922
907.968750	4059.778076
906.800781	4092.979248
905.631836	4124.023438
904.462891	3975.419922
903.293945	4047.097412
902.124023	4046.066895
900.954102	4040.762207
899.783203	3913.690674
898.613281	4066.466553
897.442383	3984.291016
896.271484	4173.258301
895.099609	4039.877441
893.927734	4113.520020
892.755859	4082.605713
891.583008	3979.202393
890.411133	4146.606445
889.238281	4164.727051
888.064453	4138.089844
886.890625	4196.677246
885.716797	4176.433105
884.542969	4143.423828
883.369141	4129.587891
882.194336	4215.779785
881.018555	4276.395508
879.843750	4377.392578
878.667969	4329.484375
877.492188	4209.318359
876.315430	4214.610840
875.138672	4294.268066
873.961914	4053.117920
872.785156	4224.094727
871.607422	4263.345215
870.429688	4298.329102
869.251953	4225.067871
868.073242	4181.545410
866.894531	4263.182617
865.715820	4240.875488
864.536133	4260.976563
863.356445	4291.663574
862.176758	4345.640137
860.996094	4342.395508
859.816406	4413.270508
858.634766	4477.756836
857.454102	4404.630371
856.272461	4509.288086
855.090820	4605.429199
853.909180	4597.886719
852.726563	4349.306641
851.543945	4468.663574
850.360352	4349.155273
849.177734	4519.154297
847.994141	4346.888672
846.809570	4343.643066
845.625977	4306.621094
844.441406	4290.723145
843.255859	4323.361816
842.071289	4336.998047
840.885742	4297.903809
839.700195	4429.604492
838.513672	4333.594727
837.327148	4347.210449
836.140625	4318.684570
834.954102	4239.625488
833.766602	4223.774414
832.579102	4235.295898
831.390625	4189.990234
830.202148	4167.850098
829.013672	4130.997559
827.825195	4209.817871
826.635742	4177.176270
825.446289	4150.855957
824.256836	4187.583496
823.066406	4091.953125
821.875977	4172.775391
820.685547	4201.067383
819.494141	4418.247070
818.302734	4484.228516
817.111328	4621.499512
815.918945	4890.825195
814.726563	5141.137207
813.534180	5332.622559
812.340820	5500.954590
811.147461	5227.141113
809.954102	5079.141113
808.759766	4734.388672
807.565430	4488.207031
806.371094	4279.825684
805.176758	4100.846191
803.981445	4091.389404
802.786133	3996.199463
801.589844	3965.867920
800.393555	3989.892822
799.197266	3909.429688
798.000977	3862.431641
796.803711	3857.225098
795.606445	3768.507813
794.408203	3880.214111
793.209961	3785.276367
792.011719	3788.437500
790.813477	3764.483154
789.614258	3844.792480
788.415039	3779.145020
787.214844	3723.951660
786.014648	3935.456299
784.814453	3732.370117
783.614258	3743.862793
782.413086	3751.185059
781.211914	3743.934570
780.010742	3749.170654
778.808594	3833.443359
777.606445	3697.248779
776.403320	3808.513916
775.200195	3857.368652
773.997070	3821.007813
772.793945	3755.584961
771.589844	3650.740234
770.385742	3697.505615
769.181641	3798.208252
767.976563	3672.685059
766.771484	3729.775879
765.565430	3737.063232
764.360352	3692.513672
763.154297	3732.968750
761.947266	3785.834229
760.740234	3768.236084
759.533203	3694.728516
758.326172	3826.236816
757.118164	3707.213623
755.910156	3778.634521
754.702148	3694.856689
753.493164	3749.694824
752.284180	3670.104004
751.074219	3826.205322
749.864258	3781.766602
748.654297	3722.889160
747.444336	3690.893555
746.233398	3673.368652
745.022461	3664.109375
743.810547	3861.226807
742.599609	3653.856445
741.386719	3669.358887
740.174805	3715.782715
738.961914	3694.151611
737.749023	3767.333252
736.535156	3613.836670
735.322266	3738.492920
734.107422	3774.533936
732.893555	3732.325928
731.678711	3698.372559
730.463867	3765.255127
729.248047	3778.619629
728.032227	3705.607422
726.816406	3628.523193
725.599609	3693.292969
724.383789	3651.182617
