#X		#Y		#Wave		#Intensity
-403.500000	1650.300000	1819.745117	1423.171021
-403.500000	1650.300000	1818.780273	1462.055542
-403.500000	1650.300000	1817.815430	1404.717651
-403.500000	1650.300000	1816.850586	1399.228027
-403.500000	1650.300000	1815.885742	1432.599976
-403.500000	1650.300000	1814.920898	1406.386475
-403.500000	1650.300000	1813.955078	1336.163574
-403.500000	1650.300000	1812.989258	1335.871704
-403.500000	1650.300000	1812.023438	1436.524902
-403.500000	1650.300000	1811.057617	1428.447998
-403.500000	1650.300000	1810.091797	1399.676880
-403.500000	1650.300000	1809.125000	1453.690796
-403.500000	1650.300000	1808.158203	1414.582520
-403.500000	1650.300000	1807.191406	1409.103027
-403.500000	1650.300000	1806.223633	1476.004272
-403.500000	1650.300000	1805.256836	1457.591797
-403.500000	1650.300000	1804.289063	1400.430054
-403.500000	1650.300000	1803.321289	1418.207642
-403.500000	1650.300000	1802.353516	1435.977539
-403.500000	1650.300000	1801.384766	1417.589844
-403.500000	1650.300000	1800.416992	1435.352173
-403.500000	1650.300000	1799.448242	1455.687744
-403.500000	1650.300000	1798.479492	1401.181641
-403.500000	1650.300000	1797.510742	1480.853027
-403.500000	1650.300000	1796.541016	1446.999756
-403.500000	1650.300000	1795.571289	1436.369995
-403.500000	1650.300000	1794.601563	1387.071899
-403.500000	1650.300000	1793.631836	1464.099487
-403.500000	1650.300000	1792.662109	1443.164673
-403.500000	1650.300000	1791.691406	1504.687622
-403.500000	1650.300000	1790.721680	1429.657837
-403.500000	1650.300000	1789.750977	1444.799805
-403.500000	1650.300000	1788.779297	1470.234497
-403.500000	1650.300000	1787.808594	1392.686768
-403.500000	1650.300000	1786.836914	1438.711548
-403.500000	1650.300000	1785.865234	1484.716309
-403.500000	1650.300000	1784.893555	1494.684692
-403.500000	1650.300000	1783.921875	1468.640015
-403.500000	1650.300000	1782.949219	1440.035156
-403.500000	1650.300000	1781.977539	1424.297363
-403.500000	1650.300000	1781.004883	1452.262817
-403.500000	1650.300000	1780.031250	1454.517944
-403.500000	1650.300000	1779.058594	1513.295898
-403.500000	1650.300000	1778.084961	1515.536743
-403.500000	1650.300000	1777.112305	1515.208618
-403.500000	1650.300000	1776.138672	1543.124023
-403.500000	1650.300000	1775.164063	1545.357056
-403.500000	1650.300000	1774.190430	1488.560059
-403.500000	1650.300000	1773.215820	1470.276489
-403.500000	1650.300000	1772.241211	1444.304688
-403.500000	1650.300000	1771.266602	1513.242310
-403.500000	1650.300000	1770.291992	1505.222412
-403.500000	1650.300000	1769.316406	1497.205811
-403.500000	1650.300000	1768.340820	1468.687500
-403.500000	1650.300000	1767.365234	1509.371704
-403.500000	1650.300000	1766.389648	1550.038452
-403.500000	1650.300000	1765.414063	1493.350708
-403.500000	1650.300000	1764.437500	1395.712524
-403.500000	1650.300000	1763.460938	1485.024658
-403.500000	1650.300000	1762.484375	1553.819580
-403.500000	1650.300000	1761.507813	1533.010010
-403.500000	1650.300000	1760.531250	1525.002930
-403.500000	1650.300000	1759.553711	1537.464844
-403.500000	1650.300000	1758.576172	1501.326416
-403.500000	1650.300000	1757.598633	1508.673950
-403.500000	1650.300000	1756.620117	1539.026855
-403.500000	1650.300000	1755.642578	1605.150391
-403.500000	1650.300000	1754.664063	1615.026001
-403.500000	1650.300000	1753.685547	1573.800049
-403.500000	1650.300000	1752.707031	1570.906738
-403.500000	1650.300000	1751.727539	1575.675781
-403.500000	1650.300000	1750.749023	1580.442871
-403.500000	1650.300000	1749.769531	1631.156006
-403.500000	1650.300000	1748.790039	1587.418701
-403.500000	1650.300000	1747.809570	1594.731689
-403.500000	1650.300000	1746.830078	1635.204834
-403.500000	1650.300000	1745.849609	1678.211060
-403.500000	1650.300000	1744.869141	1619.201782
-403.500000	1650.300000	1743.888672	1644.347168
-403.500000	1650.300000	1742.908203	1664.384155
-403.500000	1650.300000	1741.926758	1783.795410
-403.500000	1650.300000	1740.945313	1640.739014
-403.500000	1650.300000	1739.963867	1716.801758
-403.500000	1650.300000	1738.982422	1726.619385
-403.500000	1650.300000	1738.000000	1647.319580
-403.500000	1650.300000	1737.018555	1771.697266
-403.500000	1650.300000	1736.036133	1781.496704
-403.500000	1650.300000	1735.053711	1732.769531
-403.500000	1650.300000	1734.070313	1783.275513
-403.500000	1650.300000	1733.087891	1818.499634
-403.500000	1650.300000	1732.104492	1840.994629
-403.500000	1650.300000	1731.121094	1822.803589
-403.500000	1650.300000	1730.137695	1776.661499
-403.500000	1650.300000	1729.154297	1857.597900
-403.500000	1650.300000	1728.169922	1908.011963
-403.500000	1650.300000	1727.185547	1915.223022
-403.500000	1650.300000	1726.201172	1879.258667
-403.500000	1650.300000	1725.216797	1939.791626
-403.500000	1650.300000	1724.231445	1974.914063
-403.500000	1650.300000	1723.247070	1923.732666
-403.500000	1650.300000	1722.261719	2012.128052
-403.500000	1650.300000	1721.276367	1955.886841
-403.500000	1650.300000	1720.290039	1965.612915
-403.500000	1650.300000	1719.304688	1965.191772
-403.500000	1650.300000	1718.318359	1931.813477
-403.500000	1650.300000	1717.332031	1954.211548
-403.500000	1650.300000	1716.345703	1968.997681
-403.500000	1650.300000	1715.358398	1917.905029
-403.500000	1650.300000	1714.372070	1960.555786
-403.500000	1650.300000	1713.384766	1889.226807
-403.500000	1650.300000	1712.397461	1840.715820
-403.500000	1650.300000	1711.409180	1883.355591
-403.500000	1650.300000	1710.421875	2055.050537
-403.500000	1650.300000	1709.433594	1943.277344
-403.500000	1650.300000	1708.445313	1925.153320
-403.500000	1650.300000	1707.457031	1944.975464
-403.500000	1650.300000	1706.468750	2017.891479
-403.500000	1650.300000	1705.479492	2103.416992
-403.500000	1650.300000	1704.490234	1974.059570
-403.500000	1650.300000	1703.500977	1993.854126
-403.500000	1650.300000	1702.511719	2074.276855
-403.500000	1650.300000	1701.521484	2056.151611
-403.500000	1650.300000	1700.532227	2030.457886
-403.500000	1650.300000	1699.541992	2136.070313
-403.500000	1650.300000	1698.551758	2148.235840
-403.500000	1650.300000	1697.560547	2170.491455
-403.500000	1650.300000	1696.570313	2182.644531
-403.500000	1650.300000	1695.579102	2262.906494
-403.500000	1650.300000	1694.587891	2365.833984
-403.500000	1650.300000	1693.596680	2246.810303
-403.500000	1650.300000	1692.604492	2329.528076
-403.500000	1650.300000	1691.613281	2321.469238
-403.500000	1650.300000	1690.621094	2351.214600
-403.500000	1650.300000	1689.628906	2385.986328
-403.500000	1650.300000	1688.636719	2488.755615
-403.500000	1650.300000	1687.643555	2342.154785
-403.500000	1650.300000	1686.650391	2389.495605
-403.500000	1650.300000	1685.657227	2371.364258
-403.500000	1650.300000	1684.664063	2544.520264
-403.500000	1650.300000	1683.670898	2450.874756
-403.500000	1650.300000	1682.676758	2465.446777
-403.500000	1650.300000	1681.683594	2492.588623
-403.500000	1650.300000	1680.689453	2509.660156
-403.500000	1650.300000	1679.694336	2569.465088
-403.500000	1650.300000	1678.700195	2553.835693
-403.500000	1650.300000	1677.705078	2631.197266
-403.500000	1650.300000	1676.709961	2660.787109
-403.500000	1650.300000	1675.714844	2589.884033
-403.500000	1650.300000	1674.719727	2589.332275
-403.500000	1650.300000	1673.723633	2606.357422
-403.500000	1650.300000	1672.728516	2683.625000
-403.500000	1650.300000	1671.732422	2693.093018
-403.500000	1650.300000	1670.735352	2647.351318
-403.500000	1650.300000	1669.739258	2706.999023
-403.500000	1650.300000	1668.742188	2726.489014
-403.500000	1650.300000	1667.746094	2668.230713
-403.500000	1650.300000	1666.748047	2747.893066
-403.500000	1650.300000	1665.750977	2699.681641
-403.500000	1650.300000	1664.753906	2684.070313
-403.500000	1650.300000	1663.755859	2623.364746
-403.500000	1650.300000	1662.757813	2692.948486
-403.500000	1650.300000	1661.759766	2577.166748
-403.500000	1650.300000	1660.761719	2546.570557
-403.500000	1650.300000	1659.762695	2556.042725
-403.500000	1650.300000	1658.763672	2487.919678
-403.500000	1650.300000	1657.764648	2524.926514
-403.500000	1650.300000	1656.765625	2449.333496
-403.500000	1650.300000	1655.765625	2463.820557
-403.500000	1650.300000	1654.766602	2440.789551
-403.500000	1650.300000	1653.766602	2452.771973
-403.500000	1650.300000	1652.766602	2439.751709
-403.500000	1650.300000	1651.765625	2434.234619
-403.500000	1650.300000	1650.765625	2453.706543
-403.500000	1650.300000	1649.764648	2535.624023
-403.500000	1650.300000	1648.763672	2475.142334
-403.500000	1650.300000	1647.762695	2474.616211
-403.500000	1650.300000	1646.761719	2451.621338
-403.500000	1650.300000	1645.759766	2498.524902
-403.500000	1650.300000	1644.757813	2515.462402
-403.500000	1650.300000	1643.755859	2477.503418
-403.500000	1650.300000	1642.753906	2609.182373
-403.500000	1650.300000	1641.750977	2563.737793
-403.500000	1650.300000	1640.749023	2705.315674
-403.500000	1650.300000	1639.746094	2639.927002
-403.500000	1650.300000	1638.742188	2609.458252
-403.500000	1650.300000	1637.739258	2583.986328
-403.500000	1650.300000	1636.735352	2638.245117
-403.500000	1650.300000	1635.732422	2433.444824
-403.500000	1650.300000	1634.728516	2532.536133
-403.500000	1650.300000	1633.723633	2434.901123
-403.500000	1650.300000	1632.719727	2424.427490
-403.500000	1650.300000	1631.714844	2481.151123
-403.500000	1650.300000	1630.709961	2321.386475
-403.500000	1650.300000	1629.705078	2325.868896
-403.500000	1650.300000	1628.700195	2255.738281
-403.500000	1650.300000	1627.694336	2215.475342
-403.500000	1650.300000	1626.689453	2289.584229
-403.500000	1650.300000	1625.683594	2130.029541
-403.500000	1650.300000	1624.676758	2166.851318
-403.500000	1650.300000	1623.670898	2168.875732
-403.500000	1650.300000	1622.664063	2180.834717
-403.500000	1650.300000	1621.657227	2100.905029
-403.500000	1650.300000	1620.650391	2162.529541
-403.500000	1650.300000	1619.643555	2164.552979
-403.500000	1650.300000	1618.635742	2164.093750
-403.500000	1650.300000	1617.628906	2148.747070
-403.500000	1650.300000	1616.621094	2098.677002
-403.500000	1650.300000	1615.613281	2048.628174
-403.500000	1650.300000	1614.604492	2184.574463
-403.500000	1650.300000	1613.596680	2129.570068
-403.500000	1650.300000	1612.587891	2116.725342
-403.500000	1650.300000	1611.579102	2086.539307
-403.500000	1650.300000	1610.569336	2118.304688
-403.500000	1650.300000	1609.560547	2199.597168
-403.500000	1650.300000	1608.550781	2290.760986
-403.500000	1650.300000	1607.541016	2250.659424
-403.500000	1650.300000	1606.531250	2435.840576
-403.500000	1650.300000	1605.521484	2665.491699
-403.500000	1650.300000	1604.510742	2711.939941
-403.500000	1650.300000	1603.500000	2879.588135
-403.500000	1650.300000	1602.489258	2935.864258
-403.500000	1650.300000	1601.478516	2964.915527
-403.500000	1650.300000	1600.467773	2768.975098
-403.500000	1650.300000	1599.456055	2753.557129
-403.500000	1650.300000	1598.444336	2644.238037
-403.500000	1650.300000	1597.432617	2485.550781
-403.500000	1650.300000	1596.419922	2336.811523
-403.500000	1650.300000	1595.408203	2291.861572
-403.500000	1650.300000	1594.395508	2214.831787
-403.500000	1650.300000	1593.382813	2189.675781
-403.500000	1650.300000	1592.370117	2228.700928
-403.500000	1650.300000	1591.356445	2156.668457
-403.500000	1650.300000	1590.343750	2087.133301
-403.500000	1650.300000	1589.330078	2057.092285
-403.500000	1650.300000	1588.316406	2105.976318
-403.500000	1650.300000	1587.301758	2130.184570
-403.500000	1650.300000	1586.288086	2144.522705
-403.500000	1650.300000	1585.273438	2183.499023
-403.500000	1650.300000	1584.258789	2064.767578
-403.500000	1650.300000	1583.244141	2032.305542
-403.500000	1650.300000	1582.228516	2140.241211
-403.500000	1650.300000	1581.213867	2157.023682
-403.500000	1650.300000	1580.198242	2077.787598
-403.500000	1650.300000	1579.182617	1998.584961
-403.500000	1650.300000	1578.166016	2076.906250
-403.500000	1650.300000	1577.150391	2093.687744
-403.500000	1650.300000	1576.133789	2117.841064
-403.500000	1650.300000	1575.117188	2097.718262
-403.500000	1650.300000	1574.100586	2062.851563
-403.500000	1650.300000	1573.083984	2005.875732
-403.500000	1650.300000	1572.066406	2052.145996
-403.500000	1650.300000	1571.048828	2061.539063
-403.500000	1650.300000	1570.031250	1989.859985
-403.500000	1650.300000	1569.013672	2146.628174
-403.500000	1650.300000	1567.995117	2001.293823
-403.500000	1650.300000	1566.976563	2008.234497
-403.500000	1650.300000	1565.958008	2024.990234
-403.500000	1650.300000	1564.939453	2085.911133
-403.500000	1650.300000	1563.920898	2090.375488
-403.500000	1650.300000	1562.901367	2067.855225
-403.500000	1650.300000	1561.881836	2111.560791
-403.500000	1650.300000	1560.862305	2059.622314
-403.500000	1650.300000	1559.842773	2046.928223
-403.500000	1650.300000	1558.822266	1997.476196
-403.500000	1650.300000	1557.802734	2092.616943
-403.500000	1650.300000	1556.782227	2094.622803
-403.500000	1650.300000	1555.761719	2133.367676
-403.500000	1650.300000	1554.740234	2030.064819
-403.500000	1650.300000	1553.719727	2056.565186
-403.500000	1650.300000	1552.698242	2085.502197
-403.500000	1650.300000	1551.676758	2077.717773
-403.500000	1650.300000	1550.654297	2096.850830
-403.500000	1650.300000	1549.632813	2128.206543
-403.500000	1650.300000	1548.610352	2066.612549
-403.500000	1650.300000	1547.587891	2124.858154
-403.500000	1650.300000	1546.565430	2077.958740
-403.500000	1650.300000	1545.542969	2075.073486
-403.500000	1650.300000	1544.519531	2057.527588
-403.500000	1650.300000	1543.496094	2066.863281
-403.500000	1650.300000	1542.472656	2100.620605
-403.500000	1650.300000	1541.449219	2065.985840
-403.500000	1650.300000	1540.424805	2121.702637
-403.500000	1650.300000	1539.400391	2091.959961
-403.500000	1650.300000	1538.375977	2128.123291
-403.500000	1650.300000	1537.351563	1993.472046
-403.500000	1650.300000	1536.327148	2036.959229
-403.500000	1650.300000	1535.301758	2051.160400
-403.500000	1650.300000	1534.276367	2099.493408
-403.500000	1650.300000	1533.250977	2003.968750
-403.500000	1650.300000	1532.225586	2013.292725
-403.500000	1650.300000	1531.199219	2029.923218
-403.500000	1650.300000	1530.173828	2107.455811
-403.500000	1650.300000	1529.147461	1980.343994
-403.500000	1650.300000	1528.121094	1996.970581
-403.500000	1650.300000	1527.093750	2045.242554
-403.500000	1650.300000	1526.067383	2010.727905
-403.500000	1650.300000	1525.040039	2027.337036
-403.500000	1650.300000	1524.012695	2026.906250
-403.500000	1650.300000	1522.984375	2041.071899
-403.500000	1650.300000	1521.957031	2118.469482
-403.500000	1650.300000	1520.928711	2118.019043
-403.500000	1650.300000	1519.900391	2000.871704
-403.500000	1650.300000	1518.872070	2049.059814
-403.500000	1650.300000	1517.842773	2082.646484
-403.500000	1650.300000	1516.814453	2181.819092
-403.500000	1650.300000	1515.785156	2067.186279
-403.500000	1650.300000	1514.755859	2115.318848
-403.500000	1650.300000	1513.725586	2066.307129
-403.500000	1650.300000	1512.696289	2019.743652
-403.500000	1650.300000	1511.666016	2079.990723
-403.500000	1650.300000	1510.635742	2103.813721
-403.500000	1650.300000	1509.605469	2020.881226
-403.500000	1650.300000	1508.574219	2093.216553
-403.500000	1650.300000	1507.543945	2131.571289
-403.500000	1650.300000	1506.512695	2068.081055
-403.500000	1650.300000	1505.481445	2125.816162
-403.500000	1650.300000	1504.449219	2135.057617
-403.500000	1650.300000	1503.417969	2124.911377
-403.500000	1650.300000	1502.385742	2146.260986
-403.500000	1650.300000	1501.353516	2143.382080
-403.500000	1650.300000	1500.321289	2109.026367
-403.500000	1650.300000	1499.288086	2234.462646
-403.500000	1650.300000	1498.255859	2202.522217
-403.500000	1650.300000	1497.222656	2211.732666
-403.500000	1650.300000	1496.189453	2179.810303
-403.500000	1650.300000	1495.155273	2273.679688
-403.500000	1650.300000	1494.122070	2326.397705
-403.500000	1650.300000	1493.087891	2221.937744
-403.500000	1650.300000	1492.053711	2318.154785
-403.500000	1650.300000	1491.018555	2291.076660
-403.500000	1650.300000	1489.984375	2321.999512
-403.500000	1650.300000	1488.949219	2314.257324
-403.500000	1650.300000	1487.914063	2328.255371
-403.500000	1650.300000	1486.878906	2315.685547
-403.500000	1650.300000	1485.843750	2293.464355
-403.500000	1650.300000	1484.807617	2341.248535
-403.500000	1650.300000	1483.771484	2466.232910
-403.500000	1650.300000	1482.735352	2386.090088
-403.500000	1650.300000	1481.699219	2409.702393
-403.500000	1650.300000	1480.662109	2464.655273
-403.500000	1650.300000	1479.625000	2497.884766
-403.500000	1650.300000	1478.587891	2497.351807
-403.500000	1650.300000	1477.550781	2501.638916
-403.500000	1650.300000	1476.513672	2580.620117
-403.500000	1650.300000	1475.475586	2671.612305
-403.500000	1650.300000	1474.437500	2680.676270
-403.500000	1650.300000	1473.399414	2653.615967
-403.500000	1650.300000	1472.361328	2739.718994
-403.500000	1650.300000	1471.322266	2849.854492
-403.500000	1650.300000	1470.283203	2777.052246
-403.500000	1650.300000	1469.244141	2831.795898
-403.500000	1650.300000	1468.205078	2900.948486
-403.500000	1650.300000	1467.166016	2991.715576
-403.500000	1650.300000	1466.125977	3039.164307
-403.500000	1650.300000	1465.085938	3052.938232
-403.500000	1650.300000	1464.045898	3073.916260
-403.500000	1650.300000	1463.004883	3207.819336
-403.500000	1650.300000	1461.964844	3281.606445
-403.500000	1650.300000	1460.923828	3288.110352
-403.500000	1650.300000	1459.882813	3258.591553
-403.500000	1650.300000	1458.841797	3325.117188
-403.500000	1650.300000	1457.799805	3307.604004
-403.500000	1650.300000	1456.757813	3383.689453
-403.500000	1650.300000	1455.715820	3486.134033
-403.500000	1650.300000	1454.673828	3451.805664
-403.500000	1650.300000	1453.631836	3475.049316
-403.500000	1650.300000	1452.588867	3443.135010
-403.500000	1650.300000	1451.545898	3461.575684
-403.500000	1650.300000	1450.502930	3417.694092
-403.500000	1650.300000	1449.458984	3419.358398
-403.500000	1650.300000	1448.416016	3485.705078
-403.500000	1650.300000	1447.372070	3429.869873
-403.500000	1650.300000	1446.328125	3398.004639
-403.500000	1650.300000	1445.284180	3299.117188
-403.500000	1650.300000	1444.239258	3339.101807
-403.500000	1650.300000	1443.194336	3273.772461
-403.500000	1650.300000	1442.150391	3203.685547
-403.500000	1650.300000	1441.104492	3198.214600
-403.500000	1650.300000	1440.059570	3094.691406
-403.500000	1650.300000	1439.013672	3192.061035
-403.500000	1650.300000	1437.967773	3062.287109
-403.500000	1650.300000	1436.921875	3035.339844
-403.500000	1650.300000	1435.875977	2965.392578
-403.500000	1650.300000	1434.829102	2830.971924
-403.500000	1650.300000	1433.783203	2949.789063
-403.500000	1650.300000	1432.735352	3006.467529
-403.500000	1650.300000	1431.688477	2855.411621
-403.500000	1650.300000	1430.641602	3045.755127
-403.500000	1650.300000	1429.593750	3002.145020
-403.500000	1650.300000	1428.545898	3022.973633
-403.500000	1650.300000	1427.498047	3003.240967
-403.500000	1650.300000	1426.449219	3012.135254
-403.500000	1650.300000	1425.401367	2959.031494
-403.500000	1650.300000	1424.352539	3022.760254
-403.500000	1650.300000	1423.303711	2931.542480
-403.500000	1650.300000	1422.253906	2954.740967
-403.500000	1650.300000	1421.205078	2963.635010
-403.500000	1650.300000	1420.155273	2977.288574
-403.500000	1650.300000	1419.105469	2905.208496
-403.500000	1650.300000	1418.055664	2983.150146
-403.500000	1650.300000	1417.004883	2937.282715
-403.500000	1650.300000	1415.955078	2924.751709
-403.500000	1650.300000	1414.904297	2947.914795
-403.500000	1650.300000	1413.852539	2952.037598
-403.500000	1650.300000	1412.801758	2953.780273
-403.500000	1650.300000	1411.750000	2884.189941
-403.500000	1650.300000	1410.698242	2859.796387
-403.500000	1650.300000	1409.646484	3039.810303
-403.500000	1650.300000	1408.594727	2998.759766
-403.500000	1650.300000	1407.541992	2910.213135
-403.500000	1650.300000	1406.490234	2933.337646
-403.500000	1650.300000	1405.437500	2954.077148
-403.500000	1650.300000	1404.383789	2974.807373
-403.500000	1650.300000	1403.331055	3045.375000
-403.500000	1650.300000	1402.277344	2916.569336
-403.500000	1650.300000	1401.223633	2980.000488
-403.500000	1650.300000	1400.169922	3007.822754
-403.500000	1650.300000	1399.115234	2926.539551
-403.500000	1650.300000	1398.061523	2937.763184
-403.500000	1650.300000	1397.006836	2925.275879
-403.500000	1650.300000	1395.952148	2908.053711
-403.500000	1650.300000	1394.896484	2959.555420
-403.500000	1650.300000	1393.841797	2876.000244
-403.500000	1650.300000	1392.786133	2891.958252
-403.500000	1650.300000	1391.730469	2858.181152
-403.500000	1650.300000	1390.673828	2912.015625
-403.500000	1650.300000	1389.618164	2984.762451
-403.500000	1650.300000	1388.561523	2943.886963
-403.500000	1650.300000	1387.504883	2893.564941
-403.500000	1650.300000	1386.448242	2845.630127
-403.500000	1650.300000	1385.390625	2816.635010
-403.500000	1650.300000	1384.333984	2915.331055
-403.500000	1650.300000	1383.276367	2779.957275
-403.500000	1650.300000	1382.217773	2843.166992
-403.500000	1650.300000	1381.160156	2800.019287
-403.500000	1650.300000	1380.101563	2891.545410
-403.500000	1650.300000	1379.042969	2881.471436
-403.500000	1650.300000	1377.984375	2871.401611
-403.500000	1650.300000	1376.925781	2882.583252
-403.500000	1650.300000	1375.866211	2785.185059
-403.500000	1650.300000	1374.807617	2895.492188
-403.500000	1650.300000	1373.747070	2795.773682
-403.500000	1650.300000	1372.687500	2778.655518
-403.500000	1650.300000	1371.627930	2704.946045
-403.500000	1650.300000	1370.567383	2805.742920
-403.500000	1650.300000	1369.506836	2630.696777
-403.500000	1650.300000	1368.446289	2660.763428
-403.500000	1650.300000	1367.384766	2591.854736
-403.500000	1650.300000	1366.323242	2713.789063
-403.500000	1650.300000	1365.261719	2642.543213
-403.500000	1650.300000	1364.200195	2616.067383
-403.500000	1650.300000	1363.138672	2528.393799
-403.500000	1650.300000	1362.076172	2516.075684
-403.500000	1650.300000	1361.013672	2546.119629
-403.500000	1650.300000	1359.951172	2634.966553
-403.500000	1650.300000	1358.888672	2615.576172
-403.500000	1650.300000	1357.825195	2532.699951
-403.500000	1650.300000	1356.761719	2630.895508
-403.500000	1650.300000	1355.698242	2635.023926
-403.500000	1650.300000	1354.634766	2641.500488
-403.500000	1650.300000	1353.570313	2553.990723
-403.500000	1650.300000	1352.506836	2630.953369
-403.500000	1650.300000	1351.442383	2611.591553
-403.500000	1650.300000	1350.376953	2641.546875
-403.500000	1650.300000	1349.312500	2598.715332
-403.500000	1650.300000	1348.247070	2647.436035
-403.500000	1650.300000	1347.181641	2543.612305
-403.500000	1650.300000	1346.116211	2679.125000
-403.500000	1650.300000	1345.049805	2655.085449
-403.500000	1650.300000	1343.984375	2729.544922
-403.500000	1650.300000	1342.917969	2747.704834
-403.500000	1650.300000	1341.851563	2674.442383
-403.500000	1650.300000	1340.784180	2685.575195
-403.500000	1650.300000	1339.716797	2701.388916
-403.500000	1650.300000	1338.650391	2738.277100
-403.500000	1650.300000	1337.582031	2786.858398
-403.500000	1650.300000	1336.514648	2793.273193
-403.500000	1650.300000	1335.446289	2766.912598
-403.500000	1650.300000	1334.378906	2756.945801
-403.500000	1650.300000	1333.310547	2739.963623
-403.500000	1650.300000	1332.241211	2765.096680
-403.500000	1650.300000	1331.172852	2715.375977
-403.500000	1650.300000	1330.103516	2668.015137
-403.500000	1650.300000	1329.034180	2765.618408
-403.500000	1650.300000	1327.964844	2774.361572
-403.500000	1650.300000	1326.894531	2783.100586
-403.500000	1650.300000	1325.824219	2789.499268
-403.500000	1650.300000	1324.753906	2674.435791
-403.500000	1650.300000	1323.683594	2767.258789
-403.500000	1650.300000	1322.612305	2701.279541
-403.500000	1650.300000	1321.541992	2705.355225
-403.500000	1650.300000	1320.470703	2721.097168
-403.500000	1650.300000	1319.399414	2781.162842
-403.500000	1650.300000	1318.327148	2719.902344
-403.500000	1650.300000	1317.254883	2810.259277
-403.500000	1650.300000	1316.182617	2776.998779
-403.500000	1650.300000	1315.110352	2839.329102
-403.500000	1650.300000	1314.038086	2771.116699
-403.500000	1650.300000	1312.964844	2749.536377
-403.500000	1650.300000	1311.891602	2832.797363
-403.500000	1650.300000	1310.818359	2785.592285
-403.500000	1650.300000	1309.745117	2801.279297
-403.500000	1650.300000	1308.670898	2833.255371
-403.500000	1650.300000	1307.596680	2886.165283
-403.500000	1650.300000	1306.522461	2783.139893
-403.500000	1650.300000	1305.448242	2824.404053
-403.500000	1650.300000	1304.373047	2851.693848
-403.500000	1650.300000	1303.297852	2816.182861
-403.500000	1650.300000	1302.222656	2843.461670
-403.500000	1650.300000	1301.147461	2942.786865
-403.500000	1650.300000	1300.071289	2937.489746
-403.500000	1650.300000	1298.996094	2908.960205
-403.500000	1650.300000	1297.919922	2957.099609
-403.500000	1650.300000	1296.842773	2879.806641
-403.500000	1650.300000	1295.766602	2913.999268
-403.500000	1650.300000	1294.689453	2973.711914
-403.500000	1650.300000	1293.612305	2896.465576
-403.500000	1650.300000	1292.535156	3002.562500
-403.500000	1650.300000	1291.457031	2985.659424
-403.500000	1650.300000	1290.378906	2994.276611
-403.500000	1650.300000	1289.300781	3012.164795
-403.500000	1650.300000	1288.222656	2979.041504
-403.500000	1650.300000	1287.144531	3054.869629
-403.500000	1650.300000	1286.065430	3121.394775
-403.500000	1650.300000	1284.986328	3123.020264
-403.500000	1650.300000	1283.907227	3140.858398
-403.500000	1650.300000	1282.827148	3130.899170
-403.500000	1650.300000	1281.748047	3211.238525
-403.500000	1650.300000	1280.667969	3161.917236
-403.500000	1650.300000	1279.586914	3200.557373
-403.500000	1650.300000	1278.506836	3118.867676
-403.500000	1650.300000	1277.425781	3189.884277
-403.500000	1650.300000	1276.344727	3205.364746
-403.500000	1650.300000	1275.263672	3234.710938
-403.500000	1650.300000	1274.182617	3173.889648
-403.500000	1650.300000	1273.100586	3344.208008
-403.500000	1650.300000	1272.018555	3227.933838
-403.500000	1650.300000	1270.936523	3206.425049
-403.500000	1650.300000	1269.853516	3344.287354
-403.500000	1650.300000	1268.771484	3290.434570
-403.500000	1650.300000	1267.688477	3312.787842
-403.500000	1650.300000	1266.605469	3321.282471
-403.500000	1650.300000	1265.521484	3279.007324
-403.500000	1650.300000	1264.438477	3342.873535
-403.500000	1650.300000	1263.354492	3247.561768
-403.500000	1650.300000	1262.270508	3212.248047
-403.500000	1650.300000	1261.185547	3234.586670
-403.500000	1650.300000	1260.101563	3307.624023
-403.500000	1650.300000	1259.016602	3094.876709
-403.500000	1650.300000	1257.930664	3195.559082
-403.500000	1650.300000	1256.845703	3210.969727
-403.500000	1650.300000	1255.759766	3297.763184
-403.500000	1650.300000	1254.674805	3315.445557
-403.500000	1650.300000	1253.587891	3282.478516
-403.500000	1650.300000	1252.501953	3307.059814
-403.500000	1650.300000	1251.415039	3338.532227
-403.500000	1650.300000	1250.329102	3303.280518
-403.500000	1650.300000	1249.241211	3399.134033
-403.500000	1650.300000	1248.154297	3423.665527
-403.500000	1650.300000	1247.066406	3360.831787
-403.500000	1650.300000	1245.979492	3456.606689
-403.500000	1650.300000	1244.890625	3501.787598
-403.500000	1650.300000	1243.802734	3466.544189
-403.500000	1650.300000	1242.713867	3392.271729
-403.500000	1650.300000	1241.625000	3432.842773
-403.500000	1650.300000	1240.536133	3434.368652
-403.500000	1650.300000	1239.447266	3442.778564
-403.500000	1650.300000	1238.357422	3288.262939
-403.500000	1650.300000	1237.267578	3351.760986
-403.500000	1650.300000	1236.177734	3256.968994
-403.500000	1650.300000	1235.087891	3359.427734
-403.500000	1650.300000	1233.997070	3239.457031
-403.500000	1650.300000	1232.906250	3112.663574
-403.500000	1650.300000	1231.815430	3107.380371
-403.500000	1650.300000	1230.724609	3191.450684
-403.500000	1650.300000	1229.632813	3154.083740
-403.500000	1650.300000	1228.541016	3130.473389
-403.500000	1650.300000	1227.449219	3045.056396
-403.500000	1650.300000	1226.357422	3067.260254
-403.500000	1650.300000	1225.264648	3036.818848
-403.500000	1650.300000	1224.171875	3063.589844
-403.500000	1650.300000	1223.079102	2932.514160
-403.500000	1650.300000	1221.986328	2989.026123
-403.500000	1650.300000	1220.892578	2892.322021
-403.500000	1650.300000	1219.798828	2937.387207
-403.500000	1650.300000	1218.705078	2891.016113
-403.500000	1650.300000	1217.611328	2929.206055
-403.500000	1650.300000	1216.516602	2960.525146
-403.500000	1650.300000	1215.421875	2893.624512
-403.500000	1650.300000	1214.327148	2874.703613
-403.500000	1650.300000	1213.231445	2901.447021
-403.500000	1650.300000	1212.136719	2919.048828
-403.500000	1650.300000	1211.041016	3023.349854
-403.500000	1650.300000	1209.945313	3020.384033
-403.500000	1650.300000	1208.848633	2992.331055
-403.500000	1650.300000	1207.752930	3046.378174
-403.500000	1650.300000	1206.656250	3025.170410
-403.500000	1650.300000	1205.558594	2956.108887
-403.500000	1650.300000	1204.461914	3012.405029
-403.500000	1650.300000	1203.364258	3000.330811
-403.500000	1650.300000	1202.266602	2947.264160
-403.500000	1650.300000	1201.168945	2985.305908
-403.500000	1650.300000	1200.071289	3018.776855
-403.500000	1650.300000	1198.972656	3070.441162
-403.500000	1650.300000	1197.874023	2901.351074
-403.500000	1650.300000	1196.775391	2964.392822
-403.500000	1650.300000	1195.675781	2975.091064
-403.500000	1650.300000	1194.576172	3028.990479
-403.500000	1650.300000	1193.476563	2987.378174
-403.500000	1650.300000	1192.376953	2959.422119
-403.500000	1650.300000	1191.276367	3013.287109
-403.500000	1650.300000	1190.176758	3003.512695
-403.500000	1650.300000	1189.076172	2959.670898
-403.500000	1650.300000	1187.974609	2936.286865
-403.500000	1650.300000	1186.874023	2971.943359
-403.500000	1650.300000	1185.772461	3071.139648
-403.500000	1650.300000	1184.670898	3009.166016
-403.500000	1650.300000	1183.569336	2910.918701
-403.500000	1650.300000	1182.466797	3080.377686
-403.500000	1650.300000	1181.364258	3013.907471
-403.500000	1650.300000	1180.261719	3024.554932
-403.500000	1650.300000	1179.159180	3037.463623
-403.500000	1650.300000	1178.055664	3061.697510
-403.500000	1650.300000	1176.952148	3076.856934
-403.500000	1650.300000	1175.848633	3055.765625
-403.500000	1650.300000	1174.745117	3070.918457
-403.500000	1650.300000	1173.640625	2959.270508
-403.500000	1650.300000	1172.536133	3126.102539
-403.500000	1650.300000	1171.431641	2971.492676
-403.500000	1650.300000	1170.326172	3020.588623
-403.500000	1650.300000	1169.221680	3040.254395
-403.500000	1650.300000	1168.116211	3118.711426
-403.500000	1650.300000	1167.010742	3016.247803
-403.500000	1650.300000	1165.904297	3169.271484
-403.500000	1650.300000	1164.797852	3136.902832
-403.500000	1650.300000	1163.691406	3154.257813
-403.500000	1650.300000	1162.584961	3230.337402
-403.500000	1650.300000	1161.478516	3231.852783
-403.500000	1650.300000	1160.371094	3235.624756
-403.500000	1650.300000	1159.263672	3194.246338
-403.500000	1650.300000	1158.155273	3155.143311
-403.500000	1650.300000	1157.047852	3111.545166
-403.500000	1650.300000	1155.939453	3248.435303
-403.500000	1650.300000	1154.831055	3155.217285
-403.500000	1650.300000	1153.722656	3050.767822
-403.500000	1650.300000	1152.613281	3027.520996
-403.500000	1650.300000	1151.503906	3060.628662
-403.500000	1650.300000	1150.394531	3102.733643
-403.500000	1650.300000	1149.285156	2939.819824
-403.500000	1650.300000	1148.174805	3083.281982
-403.500000	1650.300000	1147.064453	3051.045410
-403.500000	1650.300000	1145.954102	3032.330322
-403.500000	1650.300000	1144.842773	3022.625977
-403.500000	1650.300000	1143.732422	3118.682129
-403.500000	1650.300000	1142.621094	3045.972412
-403.500000	1650.300000	1141.508789	3099.244873
-403.500000	1650.300000	1140.397461	3139.000732
-403.500000	1650.300000	1139.285156	3091.063965
-403.500000	1650.300000	1138.172852	3106.079834
-403.500000	1650.300000	1137.060547	2961.550781
-403.500000	1650.300000	1135.947266	3048.476074
-403.500000	1650.300000	1134.834961	3067.981934
-403.500000	1650.300000	1133.720703	3062.778320
-403.500000	1650.300000	1132.607422	3149.618408
-403.500000	1650.300000	1131.493164	3126.442139
-403.500000	1650.300000	1130.379883	3127.958740
-403.500000	1650.300000	1129.264648	3124.987793
-403.500000	1650.300000	1128.150391	3173.602539
-403.500000	1650.300000	1127.035156	3186.317383
-403.500000	1650.300000	1125.919922	3169.882568
-403.500000	1650.300000	1124.804688	3283.448242
-403.500000	1650.300000	1123.689453	3213.219727
-403.500000	1650.300000	1122.573242	3183.347656
-403.500000	1650.300000	1121.457031	3164.687256
-403.500000	1650.300000	1120.340820	3222.166992
-403.500000	1650.300000	1119.223633	3178.880127
-403.500000	1650.300000	1118.106445	3225.138184
-403.500000	1650.300000	1116.989258	3260.186279
-403.500000	1650.300000	1115.872070	3147.570068
-403.500000	1650.300000	1114.753906	3166.962891
-403.500000	1650.300000	1113.635742	3201.998291
-403.500000	1650.300000	1112.517578	3306.317627
-403.500000	1650.300000	1111.399414	3258.608643
-403.500000	1650.300000	1110.280273	3302.534424
-403.500000	1650.300000	1109.161133	3371.012451
-403.500000	1650.300000	1108.041992	3269.718506
-403.500000	1650.300000	1106.921875	3262.252930
-403.500000	1650.300000	1105.802734	3294.972900
-403.500000	1650.300000	1104.682617	3287.503906
-403.500000	1650.300000	1103.561523	3454.080566
-403.500000	1650.300000	1102.441406	3406.422363
-403.500000	1650.300000	1101.320313	3483.681152
-403.500000	1650.300000	1100.199219	3462.794189
-403.500000	1650.300000	1099.077148	3410.707520
-403.500000	1650.300000	1097.956055	3614.944824
-403.500000	1650.300000	1096.833984	3496.000732
-403.500000	1650.300000	1095.711914	3459.534912
-403.500000	1650.300000	1094.588867	3616.845459
-403.500000	1650.300000	1093.465820	3491.303467
-403.500000	1650.300000	1092.342773	3543.905762
-403.500000	1650.300000	1091.219727	3545.295166
-403.500000	1650.300000	1090.096680	3620.109131
-403.500000	1650.300000	1088.972656	3637.050293
-403.500000	1650.300000	1087.848633	3722.925781
-403.500000	1650.300000	1086.723633	3715.375732
-403.500000	1650.300000	1085.599609	3858.986816
-403.500000	1650.300000	1084.474609	3840.294922
-403.500000	1650.300000	1083.349609	3870.492432
-403.500000	1650.300000	1082.223633	4005.077881
-403.500000	1650.300000	1081.097656	3997.467041
-403.500000	1650.300000	1079.971680	4014.282227
-403.500000	1650.300000	1078.845703	4284.141602
-403.500000	1650.300000	1077.719727	4292.002930
-403.500000	1650.300000	1076.592773	4342.014648
-403.500000	1650.300000	1075.465820	4312.147949
-403.500000	1650.300000	1074.337891	4331.083008
-403.500000	1650.300000	1073.210938	4350.008301
-403.500000	1650.300000	1072.083008	4484.187500
-403.500000	1650.300000	1070.954102	4257.081543
-403.500000	1650.300000	1069.826172	4501.994629
-403.500000	1650.300000	1068.697266	4312.646973
-403.500000	1650.300000	1067.568359	4417.916016
-403.500000	1650.300000	1066.439453	4230.890625
-403.500000	1650.300000	1065.309570	4249.803223
-403.500000	1650.300000	1064.180664	4155.848145
-403.500000	1650.300000	1063.049805	4103.972168
-403.500000	1650.300000	1061.919922	3999.035889
-403.500000	1650.300000	1060.789063	3925.107666
-403.500000	1650.300000	1059.658203	3884.375977
-403.500000	1650.300000	1058.527344	3925.443359
-403.500000	1650.300000	1057.396484	3838.325195
-403.500000	1650.300000	1056.264648	3894.846924
-403.500000	1650.300000	1055.132813	3772.437500
-403.500000	1650.300000	1054.000000	3667.751465
-403.500000	1650.300000	1052.868164	3812.576904
-403.500000	1650.300000	1051.735352	3718.965576
-403.500000	1650.300000	1050.602539	3927.698730
-403.500000	1650.300000	1049.468750	3792.188477
-403.500000	1650.300000	1048.335938	3786.867920
-403.500000	1650.300000	1047.202148	3803.599365
-403.500000	1650.300000	1046.067383	3866.615479
-403.500000	1650.300000	1044.933594	4002.330322
-403.500000	1650.300000	1043.798828	3869.165039
-403.500000	1650.300000	1042.664063	4053.275879
-403.500000	1650.300000	1041.528320	4019.266113
-403.500000	1650.300000	1040.393555	4128.389648
-403.500000	1650.300000	1039.257813	4045.948730
-403.500000	1650.300000	1038.122070	4069.182617
-403.500000	1650.300000	1036.985352	4169.412598
-403.500000	1650.300000	1035.848633	4144.210938
-403.500000	1650.300000	1034.711914	4121.220215
-403.500000	1650.300000	1033.575195	4118.027344
-403.500000	1650.300000	1032.437500	4123.627930
-403.500000	1650.300000	1031.299805	4153.398438
-403.500000	1650.300000	1030.162109	4104.060059
-403.500000	1650.300000	1029.023438	4243.644531
-403.500000	1650.300000	1027.885742	4143.799805
-403.500000	1650.300000	1026.747070	4272.328613
-403.500000	1650.300000	1025.607422	4229.591797
-403.500000	1650.300000	1024.468750	4096.904785
-403.500000	1650.300000	1023.329102	4120.044922
-403.500000	1650.300000	1022.189453	4075.180420
-403.500000	1650.300000	1021.048828	3960.167725
-403.500000	1650.300000	1019.908203	3904.400879
-403.500000	1650.300000	1018.767578	3844.277100
-403.500000	1650.300000	1017.626953	3797.328857
-403.500000	1650.300000	1016.485352	3905.939453
-403.500000	1650.300000	1015.344727	3745.111328
-403.500000	1650.300000	1014.202148	3869.007813
-403.500000	1650.300000	1013.060547	3681.996826
-403.500000	1650.300000	1011.917969	3812.412354
-403.500000	1650.300000	1010.775391	3800.544434
-403.500000	1650.300000	1009.632813	3913.366943
-403.500000	1650.300000	1008.489258	3923.348145
-403.500000	1650.300000	1007.345703	4337.806641
-403.500000	1650.300000	1006.202148	4736.761230
-403.500000	1650.300000	1005.058594	5522.323730
-403.500000	1650.300000	1003.914063	6084.652832
-403.500000	1650.300000	1002.769531	6393.332031
-403.500000	1650.300000	1001.625000	6040.189941
-403.500000	1650.300000	1000.479492	5283.328613
-403.500000	1650.300000	999.333984	4707.997070
-403.500000	1650.300000	998.188477	4375.162109
-403.500000	1650.300000	997.042969	4153.750000
-403.500000	1650.300000	995.896484	4231.250977
-403.500000	1650.300000	994.750000	4033.967285
-403.500000	1650.300000	993.603516	3932.699219
-403.500000	1650.300000	992.456055	4084.296387
-403.500000	1650.300000	991.308594	4102.904785
-403.500000	1650.300000	990.161133	4086.648926
-403.500000	1650.300000	989.012695	4107.423828
-403.500000	1650.300000	987.865234	4071.577637
-403.500000	1650.300000	986.716797	4162.001465
-403.500000	1650.300000	985.567383	4108.748047
-403.500000	1650.300000	984.418945	3970.667480
-403.500000	1650.300000	983.269531	4139.353516
-403.500000	1650.300000	982.119141	4199.224121
-403.500000	1650.300000	980.969727	4172.100098
-403.500000	1650.300000	979.819336	4247.146484
-403.500000	1650.300000	978.668945	4465.575195
-403.500000	1650.300000	977.518555	4540.510742
-403.500000	1650.300000	976.367188	4671.878906
-403.500000	1650.300000	975.215820	4931.295898
-403.500000	1650.300000	974.064453	5218.804688
-403.500000	1650.300000	972.912109	5692.820801
-403.500000	1650.300000	971.760742	5908.394043
-403.500000	1650.300000	970.607422	6390.679688
-403.500000	1650.300000	969.455078	6992.006348
-403.500000	1650.300000	968.301758	7742.640137
-403.500000	1650.300000	967.148438	8573.103516
-403.500000	1650.300000	965.995117	9192.943359
-403.500000	1650.300000	964.840820	10120.128906
-403.500000	1650.300000	963.687500	10791.258789
-403.500000	1650.300000	962.532227	11355.944336
-403.500000	1650.300000	961.377930	11866.222656
-403.500000	1650.300000	960.222656	11854.615234
-403.500000	1650.300000	959.067383	11646.097656
-403.500000	1650.300000	957.912109	11368.454102
-403.500000	1650.300000	956.755859	10764.361328
-403.500000	1650.300000	955.599609	10357.333984
-403.500000	1650.300000	954.443359	9619.760742
-403.500000	1650.300000	953.286133	8828.523438
-403.500000	1650.300000	952.129883	8214.853516
-403.500000	1650.300000	950.972656	7724.615723
-403.500000	1650.300000	949.814453	7275.652832
-403.500000	1650.300000	948.656250	6926.229004
-403.500000	1650.300000	947.498047	6790.671387
-403.500000	1650.300000	946.339844	6225.743652
-403.500000	1650.300000	945.180664	5829.376953
-403.500000	1650.300000	944.022461	5735.172363
-403.500000	1650.300000	942.862305	5541.821289
-403.500000	1650.300000	941.703125	5389.526855
-403.500000	1650.300000	940.542969	5220.065430
-403.500000	1650.300000	939.382813	5111.020508
-403.500000	1650.300000	938.222656	4894.319336
-403.500000	1650.300000	937.061523	4910.320313
-403.500000	1650.300000	935.900391	4711.001953
-403.500000	1650.300000	934.739258	4600.037598
-403.500000	1650.300000	933.577148	4512.800781
-403.500000	1650.300000	932.415039	4496.605469
-403.500000	1650.300000	931.252930	4323.398926
-403.500000	1650.300000	930.090820	4242.746094
-403.500000	1650.300000	928.927734	4323.372559
-403.500000	1650.300000	927.764648	4251.355957
-403.500000	1650.300000	926.600586	4245.986816
-403.500000	1650.300000	925.437500	4167.579590
-403.500000	1650.300000	924.273438	4026.927979
-403.500000	1650.300000	923.108398	4178.359375
-403.500000	1650.300000	921.944336	4160.131348
-403.500000	1650.300000	920.779297	4163.372559
-403.500000	1650.300000	919.614258	4087.226563
-403.500000	1650.300000	918.448242	4077.613037
-403.500000	1650.300000	917.283203	4055.136963
-403.500000	1650.300000	916.116211	4060.541992
-403.500000	1650.300000	914.950195	4005.929688
-403.500000	1650.300000	913.783203	3987.771973
-403.500000	1650.300000	912.616211	3922.492920
-403.500000	1650.300000	911.449219	3923.639648
-403.500000	1650.300000	910.282227	3881.961426
-403.500000	1650.300000	909.114258	3930.210449
-403.500000	1650.300000	907.945313	3817.927246
-403.500000	1650.300000	906.777344	3885.422363
-403.500000	1650.300000	905.608398	3811.708252
-403.500000	1650.300000	904.439453	3847.092285
-403.500000	1650.300000	903.270508	3807.630615
-403.500000	1650.300000	902.100586	3849.408203
-403.500000	1650.300000	900.930664	3797.143555
-403.500000	1650.300000	899.759766	3766.267578
-403.500000	1650.300000	898.589844	3808.021729
-403.500000	1650.300000	897.418945	3787.833252
-403.500000	1650.300000	896.248047	3669.460449
-403.500000	1650.300000	895.076172	3845.653809
-403.500000	1650.300000	893.904297	3804.133301
-403.500000	1650.300000	892.732422	3850.086914
-403.500000	1650.300000	891.559570	3885.354004
-403.500000	1650.300000	890.387695	3790.554932
-403.500000	1650.300000	889.214844	3815.160645
-403.500000	1650.300000	888.041016	3880.239014
-403.500000	1650.300000	886.867188	3821.726563
-403.500000	1650.300000	885.693359	3991.125488
-403.500000	1650.300000	884.519531	3845.316406
-403.500000	1650.300000	883.344727	3867.744141
-403.500000	1650.300000	882.169922	3873.135010
-403.500000	1650.300000	880.995117	3976.389648
-403.500000	1650.300000	879.820313	4024.288330
-403.500000	1650.300000	878.644531	3840.377930
-403.500000	1650.300000	877.468750	4045.602539
-403.500000	1650.300000	876.291992	3906.412354
-403.500000	1650.300000	875.115234	3986.148682
-403.500000	1650.300000	873.938477	3991.493896
-403.500000	1650.300000	872.761719	3988.340820
-403.500000	1650.300000	871.583984	3910.877686
-403.500000	1650.300000	870.406250	3926.848877
-403.500000	1650.300000	869.228516	3881.270996
-403.500000	1650.300000	868.049805	3996.951904
-403.500000	1650.300000	866.871094	3959.861816
-403.500000	1650.300000	865.692383	4020.329834
-403.500000	1650.300000	864.512695	3989.611084
-403.500000	1650.300000	863.333008	4024.606445
-403.500000	1650.300000	862.153320	4012.969727
-403.500000	1650.300000	860.972656	4134.787109
-403.500000	1650.300000	859.791992	4152.773926
-403.500000	1650.300000	858.611328	4160.164551
-403.500000	1650.300000	857.430664	4211.999023
-403.500000	1650.300000	856.249023	4208.789063
-403.500000	1650.300000	855.067383	4334.624023
-403.500000	1650.300000	853.884766	4333.497070
-403.500000	1650.300000	852.703125	4281.624512
-403.500000	1650.300000	851.519531	4160.021484
-403.500000	1650.300000	850.336914	4190.637207
-403.500000	1650.300000	849.153320	4240.250977
-403.500000	1650.300000	847.969727	4095.517334
-403.500000	1650.300000	846.786133	4077.556152
-403.500000	1650.300000	845.601563	4217.934082
-403.500000	1650.300000	844.416992	4161.959473
-403.500000	1650.300000	843.232422	4154.541992
-403.500000	1650.300000	842.046875	4079.626465
-403.500000	1650.300000	840.862305	3975.224854
-403.500000	1650.300000	839.675781	3988.943115
-403.500000	1650.300000	838.490234	4030.054199
-403.500000	1650.300000	837.303711	3915.208984
-403.500000	1650.300000	836.117188	3907.863037
-403.500000	1650.300000	834.929688	3961.597412
-403.500000	1650.300000	833.742188	3935.291504
-403.500000	1650.300000	832.554688	3881.633545
-403.500000	1650.300000	831.367188	3926.912354
-403.500000	1650.300000	830.178711	3852.243896
-403.500000	1650.300000	828.990234	3840.714600
-403.500000	1650.300000	827.800781	3785.031738
-403.500000	1650.300000	826.612305	3802.956055
-403.500000	1650.300000	825.422852	3795.649658
-403.500000	1650.300000	824.232422	3809.357910
-403.500000	1650.300000	823.042969	3814.655762
-403.500000	1650.300000	821.851563	3973.251953
-403.500000	1650.300000	820.661133	3913.418457
-403.500000	1650.300000	819.469727	3922.880127
-403.500000	1650.300000	818.278320	4003.680176
-403.500000	1650.300000	817.086914	4189.327637
-403.500000	1650.300000	815.895508	4284.693848
-403.500000	1650.300000	814.703125	4476.457031
-403.500000	1650.300000	813.509766	4475.271973
-403.500000	1650.300000	812.317383	4499.234375
-403.500000	1650.300000	811.124023	4778.776855
-403.500000	1650.300000	809.929688	4687.447754
-403.500000	1650.300000	808.736328	4422.370117
-403.500000	1650.300000	807.541992	3950.188477
-403.500000	1650.300000	806.347656	3760.786377
-403.500000	1650.300000	805.152344	3828.832031
-403.500000	1650.300000	803.957031	3706.495605
-403.500000	1650.300000	802.761719	3690.872070
-403.500000	1650.300000	801.566406	3629.263184
-403.500000	1650.300000	800.370117	3640.837158
-403.500000	1650.300000	799.172852	3491.514893
-403.500000	1650.300000	797.976563	3532.362793
-403.500000	1650.300000	796.779297	3573.188232
-403.500000	1650.300000	795.582031	3565.971680
-403.500000	1650.300000	794.383789	3502.402588
-403.500000	1650.300000	793.186523	3474.340332
-403.500000	1650.300000	791.987305	3498.445801
-403.500000	1650.300000	790.789063	3514.195068
-403.500000	1650.300000	789.589844	3450.704834
-403.500000	1650.300000	788.390625	3468.541504
-403.500000	1650.300000	787.191406	3459.277344
-403.500000	1650.300000	785.991211	3487.517334
-403.500000	1650.300000	784.791016	3457.423828
-403.500000	1650.300000	783.589844	3531.456787
-403.500000	1650.300000	782.388672	3578.387695
-403.500000	1650.300000	781.187500	3500.426025
-403.500000	1650.300000	779.986328	3495.324707
-403.500000	1650.300000	778.784180	3515.185303
-403.500000	1650.300000	777.582031	3441.459961
-403.500000	1650.300000	776.379883	3475.875000
-403.500000	1650.300000	775.176758	3437.529785
-403.500000	1650.300000	773.973633	3343.105225
-403.500000	1650.300000	772.769531	3404.520264
-403.500000	1650.300000	771.566406	3484.591064
-403.500000	1650.300000	770.361328	3477.423096
-403.500000	1650.300000	769.157227	3451.578369
-403.500000	1650.300000	767.952148	3481.770752
-403.500000	1650.300000	766.747070	3480.830078
-403.500000	1650.300000	765.541992	3517.218262
-403.500000	1650.300000	764.335938	3464.435059
-403.500000	1650.300000	763.129883	3442.770508
-403.500000	1650.300000	761.922852	3396.251221
-403.500000	1650.300000	760.716797	3521.697998
-403.500000	1650.300000	759.509766	3475.180908
-403.500000	1650.300000	758.301758	3410.054199
-403.500000	1650.300000	757.093750	3504.344482
-403.500000	1650.300000	755.885742	3526.156006
-403.500000	1650.300000	754.677734	3504.510498
-403.500000	1650.300000	753.468750	3482.875977
-403.500000	1650.300000	752.259766	3463.320068
-403.500000	1650.300000	751.049805	3425.170166
-403.500000	1650.300000	749.840820	3455.235840
-403.500000	1650.300000	748.629883	3384.052002
-403.500000	1650.300000	747.419922	3471.942139
-403.500000	1650.300000	746.208984	3415.245117
-403.500000	1650.300000	744.998047	3354.449463
-403.500000	1650.300000	743.787109	3378.298340
-403.500000	1650.300000	742.575195	3523.859619
-403.500000	1650.300000	741.363281	3461.019287
-403.500000	1650.300000	740.150391	3453.886963
-403.500000	1650.300000	738.937500	3389.037109
-403.500000	1650.300000	737.724609	3447.875732
-403.500000	1650.300000	736.511719	3535.525879
-403.500000	1650.300000	735.297852	3532.497559
-403.500000	1650.300000	734.083984	3504.759521
-403.500000	1650.300000	732.869141	3464.684326
-403.500000	1650.300000	731.654297	3422.572266
-403.500000	1650.300000	730.439453	3475.127686
-403.500000	1650.300000	729.223633	3408.351074
-403.500000	1650.300000	728.007813	3477.331055
-403.500000	1650.300000	726.791992	3402.365723
-403.500000	1650.300000	725.576172	3415.816162
-403.500000	1650.300000	724.359375	3515.555176
-331.491484	1719.688570	1819.745117	1786.092651
-331.491484	1719.688570	1818.780273	1734.246704
-331.491484	1719.688570	1817.815430	1798.660522
-331.491484	1719.688570	1816.850586	1844.908203
-331.491484	1719.688570	1815.885742	1746.062134
-331.491484	1719.688570	1814.920898	1851.871704
-331.491484	1719.688570	1813.955078	1745.298950
-331.491484	1719.688570	1812.989258	1851.062500
-331.491484	1719.688570	1812.023438	1811.833252
-331.491484	1719.688570	1811.057617	1736.392334
-331.491484	1719.688570	1810.091797	1886.071167
-331.491484	1719.688570	1809.125000	1815.820190
-331.491484	1719.688570	1808.158203	1841.284790
-331.491484	1719.688570	1807.191406	1856.396240
-331.491484	1719.688570	1806.223633	1809.462402
-331.491484	1719.688570	1805.256836	1863.339844
-331.491484	1719.688570	1804.289063	1831.927856
-331.491484	1719.688570	1803.321289	1823.778931
-331.491484	1719.688570	1802.353516	1900.862427
-331.491484	1719.688570	1801.384766	1936.598267
-331.491484	1719.688570	1800.416992	1768.374512
-331.491484	1719.688570	1799.448242	1798.961670
-331.491484	1719.688570	1798.479492	1834.696289
-331.491484	1719.688570	1797.510742	1916.853394
-331.491484	1719.688570	1796.541016	1947.388306
-331.491484	1719.688570	1795.571289	1892.810669
-331.491484	1719.688570	1794.601563	1830.522339
-331.491484	1719.688570	1793.631836	1863.633667
-331.491484	1719.688570	1792.662109	1868.382813
-331.491484	1719.688570	1791.691406	1955.578491
-331.491484	1719.688570	1790.721680	1862.419189
-331.491484	1719.688570	1789.750977	1905.796509
-331.491484	1719.688570	1788.779297	1877.059448
-331.491484	1719.688570	1787.808594	1874.077637
-331.491484	1719.688570	1786.836914	1891.687012
-331.491484	1719.688570	1785.865234	1906.715454
-331.491484	1719.688570	1784.893555	1952.608765
-331.491484	1719.688570	1783.921875	1936.752930
-331.491484	1719.688570	1782.949219	1864.331299
-331.491484	1719.688570	1781.977539	1858.785156
-331.491484	1719.688570	1781.004883	1878.945313
-331.491484	1719.688570	1780.031250	1883.677856
-331.491484	1719.688570	1779.058594	1947.501343
-331.491484	1719.688570	1778.084961	1965.060425
-331.491484	1719.688570	1777.112305	1895.294800
-331.491484	1719.688570	1776.138672	1894.884399
-331.491484	1719.688570	1775.164063	1912.443604
-331.491484	1719.688570	1774.190430	2006.989502
-331.491484	1719.688570	1773.215820	1944.973022
-331.491484	1719.688570	1772.241211	1849.633545
-331.491484	1719.688570	1771.266602	1864.622314
-331.491484	1719.688570	1770.291992	1851.397827
-331.491484	1719.688570	1769.316406	1938.163696
-331.491484	1719.688570	1768.340820	1986.444702
-331.491484	1719.688570	1767.365234	1973.202515
-331.491484	1719.688570	1766.389648	1959.965942
-331.491484	1719.688570	1765.414063	1941.612061
-331.491484	1719.688570	1764.437500	1971.924072
-331.491484	1719.688570	1763.460938	1976.619019
-331.491484	1719.688570	1762.484375	1999.230835
-331.491484	1719.688570	1761.507813	2019.273560
-331.491484	1719.688570	1760.531250	1921.606079
-331.491484	1719.688570	1759.553711	1997.936890
-331.491484	1719.688570	1758.576172	1902.873779
-331.491484	1719.688570	1757.598633	1968.947266
-331.491484	1719.688570	1756.620117	1925.061890
-331.491484	1719.688570	1755.642578	1945.094604
-331.491484	1719.688570	1754.664063	1995.783813
-331.491484	1719.688570	1753.685547	2100.103271
-331.491484	1719.688570	1752.707031	2051.118896
-331.491484	1719.688570	1751.727539	2076.214600
-331.491484	1719.688570	1750.749023	1945.553345
-331.491484	1719.688570	1749.769531	1963.003052
-331.491484	1719.688570	1748.790039	1995.757935
-331.491484	1719.688570	1747.809570	2076.978516
-331.491484	1719.688570	1746.830078	2063.776611
-331.491484	1719.688570	1745.849609	2081.185791
-331.491484	1719.688570	1744.869141	2098.587402
-331.491484	1719.688570	1743.888672	2077.740967
-331.491484	1719.688570	1742.908203	1990.634033
-331.491484	1719.688570	1741.926758	2071.750977
-331.491484	1719.688570	1740.945313	2122.260254
-331.491484	1719.688570	1739.963867	2070.860352
-331.491484	1719.688570	1738.982422	2200.293701
-331.491484	1719.688570	1738.000000	2197.274902
-331.491484	1719.688570	1737.018555	2084.798828
-331.491484	1719.688570	1736.036133	2170.880859
-331.491484	1719.688570	1735.053711	2190.770264
-331.491484	1719.688570	1734.070313	2144.509521
-331.491484	1719.688570	1733.087891	2182.199463
-331.491484	1719.688570	1732.104492	2196.988037
-331.491484	1719.688570	1731.121094	2201.601074
-331.491484	1719.688570	1730.137695	2269.754883
-331.491484	1719.688570	1729.154297	2269.268066
-331.491484	1719.688570	1728.169922	2253.537354
-331.491484	1719.688570	1727.185547	2265.754395
-331.491484	1719.688570	1726.201172	2247.491943
-331.491484	1719.688570	1725.216797	2290.172852
-331.491484	1719.688570	1724.231445	2241.451416
-331.491484	1719.688570	1723.247070	2301.880615
-331.491484	1719.688570	1722.261719	2397.807129
-331.491484	1719.688570	1721.276367	2376.998779
-331.491484	1719.688570	1720.290039	2401.852051
-331.491484	1719.688570	1719.304688	2368.373047
-331.491484	1719.688570	1718.318359	2441.386230
-331.491484	1719.688570	1717.332031	2463.675293
-331.491484	1719.688570	1716.345703	2371.920166
-331.491484	1719.688570	1715.358398	2419.549805
-331.491484	1719.688570	1714.372070	2305.046143
-331.491484	1719.688570	1713.384766	2453.968994
-331.491484	1719.688570	1712.397461	2387.613525
-331.491484	1719.688570	1711.409180	2384.571289
-331.491484	1719.688570	1710.421875	2394.184570
-331.491484	1719.688570	1709.433594	2373.429932
-331.491484	1719.688570	1708.445313	2458.934326
-331.491484	1719.688570	1707.457031	2486.229980
-331.491484	1719.688570	1706.468750	2361.792725
-331.491484	1719.688570	1705.479492	2368.872314
-331.491484	1719.688570	1704.490234	2413.862793
-331.491484	1719.688570	1703.500977	2489.158691
-331.491484	1719.688570	1702.511719	2536.630859
-331.491484	1719.688570	1701.521484	2546.192871
-331.491484	1719.688570	1700.532227	2527.970703
-331.491484	1719.688570	1699.541992	2610.752441
-331.491484	1719.688570	1698.551758	2620.292236
-331.491484	1719.688570	1697.560547	2602.065918
-331.491484	1719.688570	1696.570313	2558.614502
-331.491484	1719.688570	1695.579102	2669.069092
-331.491484	1719.688570	1694.587891	2605.444092
-331.491484	1719.688570	1693.596680	2647.756348
-331.491484	1719.688570	1692.604492	2614.416260
-331.491484	1719.688570	1691.613281	2702.079346
-331.491484	1719.688570	1690.621094	2724.183350
-331.491484	1719.688570	1689.628906	2648.016357
-331.491484	1719.688570	1688.636719	2801.109375
-331.491484	1719.688570	1687.643555	2810.585693
-331.491484	1719.688570	1686.650391	2885.523438
-331.491484	1719.688570	1685.657227	2877.355957
-331.491484	1719.688570	1684.664063	2876.742432
-331.491484	1719.688570	1683.670898	2818.254150
-331.491484	1719.688570	1682.676758	2943.441650
-331.491484	1719.688570	1681.683594	2940.298828
-331.491484	1719.688570	1680.689453	2884.348877
-331.491484	1719.688570	1679.694336	2961.673096
-331.491484	1719.688570	1678.700195	2857.983643
-331.491484	1719.688570	1677.705078	2852.348389
-331.491484	1719.688570	1676.709961	2959.780273
-331.491484	1719.688570	1675.714844	2866.205322
-331.491484	1719.688570	1674.719727	2993.679932
-331.491484	1719.688570	1673.723633	3023.173584
-331.491484	1719.688570	1672.728516	2851.822266
-331.491484	1719.688570	1671.732422	2959.139404
-331.491484	1719.688570	1670.735352	3028.770752
-331.491484	1719.688570	1669.739258	2905.194580
-331.491484	1719.688570	1668.742188	2992.365479
-331.491484	1719.688570	1667.746094	2996.743896
-331.491484	1719.688570	1666.748047	2988.584473
-331.491484	1719.688570	1665.750977	2940.321777
-331.491484	1719.688570	1664.753906	2937.189941
-331.491484	1719.688570	1663.755859	2921.531250
-331.491484	1719.688570	1662.757813	2850.767578
-331.491484	1719.688570	1661.759766	2962.865234
-331.491484	1719.688570	1660.761719	2817.002686
-331.491484	1719.688570	1659.762695	2941.577148
-331.491484	1719.688570	1658.763672	2893.395508
-331.491484	1719.688570	1657.764648	2907.794678
-331.491484	1719.688570	1656.765625	2862.142578
-331.491484	1719.688570	1655.765625	2844.024414
-331.491484	1719.688570	1654.766602	2855.923828
-331.491484	1719.688570	1653.766602	2872.818359
-331.491484	1719.688570	1652.766602	2874.707520
-331.491484	1719.688570	1651.765625	2761.631592
-331.491484	1719.688570	1650.765625	2821.012939
-331.491484	1719.688570	1649.764648	2895.357910
-331.491484	1719.688570	1648.763672	2859.775879
-331.491484	1719.688570	1647.762695	2844.185547
-331.491484	1719.688570	1646.761719	2883.526123
-331.491484	1719.688570	1645.759766	2927.841797
-331.491484	1719.688570	1644.757813	2977.129639
-331.491484	1719.688570	1643.755859	3116.215332
-331.491484	1719.688570	1642.753906	3138.003174
-331.491484	1719.688570	1641.750977	3107.409668
-331.491484	1719.688570	1640.749023	3086.802490
-331.491484	1719.688570	1639.746094	3175.889404
-331.491484	1719.688570	1638.742188	3157.768555
-331.491484	1719.688570	1637.739258	3249.294189
-331.491484	1719.688570	1636.735352	3044.320557
-331.491484	1719.688570	1635.732422	3103.451660
-331.491484	1719.688570	1634.728516	3048.008301
-331.491484	1719.688570	1633.723633	2940.304932
-331.491484	1719.688570	1632.719727	2979.507080
-331.491484	1719.688570	1631.714844	2891.772705
-331.491484	1719.688570	1630.709961	2801.587646
-331.491484	1719.688570	1629.705078	2781.092285
-331.491484	1719.688570	1628.700195	2730.761230
-331.491484	1719.688570	1627.694336	2777.425293
-331.491484	1719.688570	1626.689453	2655.022705
-331.491484	1719.688570	1625.683594	2748.906250
-331.491484	1719.688570	1624.676758	2718.503906
-331.491484	1719.688570	1623.670898	2668.239014
-331.491484	1719.688570	1622.664063	2642.833984
-331.491484	1719.688570	1621.657227	2515.622803
-331.491484	1719.688570	1620.650391	2644.195068
-331.491484	1719.688570	1619.643555	2598.952881
-331.491484	1719.688570	1618.635742	2511.539795
-331.491484	1719.688570	1617.628906	2511.006836
-331.491484	1719.688570	1616.621094	2664.277832
-331.491484	1719.688570	1615.613281	2633.950439
-331.491484	1719.688570	1614.604492	2675.545654
-331.491484	1719.688570	1613.596680	2635.312012
-331.491484	1719.688570	1612.587891	2605.009766
-331.491484	1719.688570	1611.579102	2614.369385
-331.491484	1719.688570	1610.569336	2641.067627
-331.491484	1719.688570	1609.560547	2727.203369
-331.491484	1719.688570	1608.550781	2654.806152
-331.491484	1719.688570	1607.541016	2681.478760
-331.491484	1719.688570	1606.531250	2869.043945
-331.491484	1719.688570	1605.521484	2823.886719
-331.491484	1719.688570	1604.510742	2885.147705
-331.491484	1719.688570	1603.500000	2909.274658
-331.491484	1719.688570	1602.489258	2992.751221
-331.491484	1719.688570	1601.478516	2927.822998
-331.491484	1719.688570	1600.467773	2951.925049
-331.491484	1719.688570	1599.456055	2882.089355
-331.491484	1719.688570	1598.444336	2896.305664
-331.491484	1719.688570	1597.432617	2680.738037
-331.491484	1719.688570	1596.419922	2714.752441
-331.491484	1719.688570	1595.408203	2664.782959
-331.491484	1719.688570	1594.395508	2646.933838
-331.491484	1719.688570	1593.382813	2700.682373
-331.491484	1719.688570	1592.370117	2668.024170
-331.491484	1719.688570	1591.356445	2598.365967
-331.491484	1719.688570	1590.343750	2612.617188
-331.491484	1719.688570	1589.330078	2503.535645
-331.491484	1719.688570	1588.316406	2626.305420
-331.491484	1719.688570	1587.301758	2586.300537
-331.491484	1719.688570	1586.288086	2632.586426
-331.491484	1719.688570	1585.273438	2563.023682
-331.491484	1719.688570	1584.258789	2557.552246
-331.491484	1719.688570	1583.244141	2584.107178
-331.491484	1719.688570	1582.228516	2657.445557
-331.491484	1719.688570	1581.213867	2568.237061
-331.491484	1719.688570	1580.198242	2663.704102
-331.491484	1719.688570	1579.182617	2589.299805
-331.491484	1719.688570	1578.166016	2541.995605
-331.491484	1719.688570	1577.150391	2686.612305
-331.491484	1719.688570	1576.133789	2604.870850
-331.491484	1719.688570	1575.117188	2577.266846
-331.491484	1719.688570	1574.100586	2672.609619
-331.491484	1719.688570	1573.083984	2617.962891
-331.491484	1719.688570	1572.066406	2568.254395
-331.491484	1719.688570	1571.048828	2621.766846
-331.491484	1719.688570	1570.031250	2606.470947
-331.491484	1719.688570	1569.013672	2515.042480
-331.491484	1719.688570	1567.995117	2575.898438
-331.491484	1719.688570	1566.976563	2621.998047
-331.491484	1719.688570	1565.958008	2567.442139
-331.491484	1719.688570	1564.939453	2731.316406
-331.491484	1719.688570	1563.920898	2620.329834
-331.491484	1719.688570	1562.901367	2580.526367
-331.491484	1719.688570	1561.881836	2570.169189
-331.491484	1719.688570	1560.862305	2576.979736
-331.491484	1719.688570	1559.842773	2613.204346
-331.491484	1719.688570	1558.822266	2644.511475
-331.491484	1719.688570	1557.802734	2616.996338
-331.491484	1719.688570	1556.782227	2623.790527
-331.491484	1719.688570	1555.761719	2652.625732
-331.491484	1719.688570	1554.740234	2615.330811
-331.491484	1719.688570	1553.719727	2602.534424
-331.491484	1719.688570	1552.698242	2638.698730
-331.491484	1719.688570	1551.676758	2581.852051
-331.491484	1719.688570	1550.654297	2569.070313
-331.491484	1719.688570	1549.632813	2637.019287
-331.491484	1719.688570	1548.610352	2668.253662
-331.491484	1719.688570	1547.587891	2640.790283
-331.491484	1719.688570	1546.565430	2513.107666
-331.491484	1719.688570	1545.542969	2590.786621
-331.491484	1719.688570	1544.519531	2629.334717
-331.491484	1719.688570	1543.496094	2606.788574
-331.491484	1719.688570	1542.472656	2689.282959
-331.491484	1719.688570	1541.449219	2644.754883
-331.491484	1719.688570	1540.424805	2639.310303
-331.491484	1719.688570	1539.400391	2607.016602
-331.491484	1719.688570	1538.375977	2596.700928
-331.491484	1719.688570	1537.351563	2564.429688
-331.491484	1719.688570	1536.327148	2559.006348
-331.491484	1719.688570	1535.301758	2538.951172
-331.491484	1719.688570	1534.276367	2572.550049
-331.491484	1719.688570	1533.250977	2630.513672
-331.491484	1719.688570	1532.225586	2632.392334
-331.491484	1719.688570	1531.199219	2670.823486
-331.491484	1719.688570	1530.173828	2643.456055
-331.491484	1719.688570	1529.147461	2757.379395
-331.491484	1719.688570	1528.121094	2715.392822
-331.491484	1719.688570	1527.093750	2661.250244
-331.491484	1719.688570	1526.067383	2723.976318
-331.491484	1719.688570	1525.040039	2626.046387
-331.491484	1719.688570	1524.012695	2579.256348
-331.491484	1719.688570	1522.984375	2680.883545
-331.491484	1719.688570	1521.957031	2604.914795
-331.491484	1719.688570	1520.928711	2645.700195
-331.491484	1719.688570	1519.900391	2606.238770
-331.491484	1719.688570	1518.872070	2651.867432
-331.491484	1719.688570	1517.842773	2617.281494
-331.491484	1719.688570	1516.814453	2687.184570
-331.491484	1719.688570	1515.785156	2618.597656
-331.491484	1719.688570	1514.755859	2756.471680
-331.491484	1719.688570	1513.725586	2607.771729
-331.491484	1719.688570	1512.696289	2633.920654
-331.491484	1719.688570	1511.666016	2725.588623
-331.491484	1719.688570	1510.635742	2671.625000
-331.491484	1719.688570	1509.605469	2680.760742
-331.491484	1719.688570	1508.574219	2740.828125
-331.491484	1719.688570	1507.543945	2745.094971
-331.491484	1719.688570	1506.512695	2632.984863
-331.491484	1719.688570	1505.481445	2688.175781
-331.491484	1719.688570	1504.449219	2782.118164
-331.491484	1719.688570	1503.417969	2667.648193
-331.491484	1719.688570	1502.385742	2797.890869
-331.491484	1719.688570	1501.353516	2739.169678
-331.491484	1719.688570	1500.321289	2750.693604
-331.491484	1719.688570	1499.288086	2786.420898
-331.491484	1719.688570	1498.255859	2735.000244
-331.491484	1719.688570	1497.222656	2911.065918
-331.491484	1719.688570	1496.189453	2726.577393
-331.491484	1719.688570	1495.155273	2793.723389
-331.491484	1719.688570	1494.122070	2824.565918
-331.491484	1719.688570	1493.087891	2797.368652
-331.491484	1719.688570	1492.053711	2864.456055
-331.491484	1719.688570	1491.018555	2897.680176
-331.491484	1719.688570	1489.984375	2979.214600
-331.491484	1719.688570	1488.949219	2908.523926
-331.491484	1719.688570	1487.914063	2980.360107
-331.491484	1719.688570	1486.878906	2878.307861
-331.491484	1719.688570	1485.843750	2843.895996
-331.491484	1719.688570	1484.807617	2939.835938
-331.491484	1719.688570	1483.771484	2977.819336
-331.491484	1719.688570	1482.735352	3051.975830
-331.491484	1719.688570	1481.699219	2993.434082
-331.491484	1719.688570	1480.662109	2985.560791
-331.491484	1719.688570	1479.625000	3057.256592
-331.491484	1719.688570	1478.587891	3042.140869
-331.491484	1719.688570	1477.550781	3113.793457
-331.491484	1719.688570	1476.513672	3173.367432
-331.491484	1719.688570	1475.475586	3151.009033
-331.491484	1719.688570	1474.437500	3212.957764
-331.491484	1719.688570	1473.399414	3130.399902
-331.491484	1719.688570	1472.361328	3223.623535
-331.491484	1719.688570	1471.322266	3232.562988
-331.491484	1719.688570	1470.283203	3222.247070
-331.491484	1719.688570	1469.244141	3351.479736
-331.491484	1719.688570	1468.205078	3502.305908
-331.491484	1719.688570	1467.166016	3455.864258
-331.491484	1719.688570	1466.125977	3611.412109
-331.491484	1719.688570	1465.085938	3545.735352
-331.491484	1719.688570	1464.045898	3530.557373
-331.491484	1719.688570	1463.004883	3630.722900
-331.491484	1719.688570	1461.964844	3625.142090
-331.491484	1719.688570	1460.923828	3590.741455
-331.491484	1719.688570	1459.882813	3664.414551
-331.491484	1719.688570	1458.841797	3699.643066
-331.491484	1719.688570	1457.799805	3768.460205
-331.491484	1719.688570	1456.757813	3820.449463
-331.491484	1719.688570	1455.715820	3843.624756
-331.491484	1719.688570	1454.673828	3768.440918
-331.491484	1719.688570	1453.631836	3925.918213
-331.491484	1719.688570	1452.588867	3853.146240
-331.491484	1719.688570	1451.545898	3861.910400
-331.491484	1719.688570	1450.502930	3868.273682
-331.491484	1719.688570	1449.458984	3848.275879
-331.491484	1719.688570	1448.416016	3948.070068
-331.491484	1719.688570	1447.372070	3837.047119
-331.491484	1719.688570	1446.328125	3670.994629
-331.491484	1719.688570	1445.284180	3799.491455
-331.491484	1719.688570	1444.239258	3717.294189
-331.491484	1719.688570	1443.194336	3759.573486
-331.491484	1719.688570	1442.150391	3734.841553
-331.491484	1719.688570	1441.104492	3789.058838
-331.491484	1719.688570	1440.059570	3596.920898
-331.491484	1719.688570	1439.013672	3553.110596
-331.491484	1719.688570	1437.967773	3583.425781
-331.491484	1719.688570	1436.921875	3520.516357
-331.491484	1719.688570	1435.875977	3491.086670
-331.491484	1719.688570	1434.829102	3502.282715
-331.491484	1719.688570	1433.783203	3511.085205
-331.491484	1719.688570	1432.735352	3512.719482
-331.491484	1719.688570	1431.688477	3540.614990
-331.491484	1719.688570	1430.641602	3496.889648
-331.491484	1719.688570	1429.593750	3443.636963
-331.491484	1719.688570	1428.545898	3435.739502
-331.491484	1719.688570	1427.498047	3561.428711
-331.491484	1719.688570	1426.449219	3489.116455
-331.491484	1719.688570	1425.401367	3533.670166
-331.491484	1719.688570	1424.352539	3482.849121
-331.491484	1719.688570	1423.303711	3501.167480
-331.491484	1719.688570	1422.253906	3517.094727
-331.491484	1719.688570	1421.205078	3442.485840
-331.491484	1719.688570	1420.155273	3386.963379
-331.491484	1719.688570	1419.105469	3505.300781
-331.491484	1719.688570	1418.055664	3416.457031
-331.491484	1719.688570	1417.004883	3413.341553
-331.491484	1719.688570	1415.955078	3343.593262
-331.491484	1719.688570	1414.904297	3449.940674
-331.491484	1719.688570	1413.852539	3335.017578
-331.491484	1719.688570	1412.801758	3457.968262
-331.491484	1719.688570	1411.750000	3471.489990
-331.491484	1719.688570	1410.698242	3563.453857
-331.491484	1719.688570	1409.646484	3465.240967
-331.491484	1719.688570	1408.594727	3564.294678
-331.491484	1719.688570	1407.541992	3587.283203
-331.491484	1719.688570	1406.490234	3558.007813
-331.491484	1719.688570	1405.437500	3732.965576
-331.491484	1719.688570	1404.383789	3589.711914
-331.491484	1719.688570	1403.331055	3586.563965
-331.491484	1719.688570	1402.277344	3690.207764
-331.491484	1719.688570	1401.223633	3663.312744
-331.491484	1719.688570	1400.169922	3631.685059
-331.491484	1719.688570	1399.115234	3486.234131
-331.491484	1719.688570	1398.061523	3540.016357
-331.491484	1719.688570	1397.006836	3562.957520
-331.491484	1719.688570	1395.952148	3491.086670
-331.491484	1719.688570	1394.896484	3521.136475
-331.491484	1719.688570	1393.841797	3449.304932
-331.491484	1719.688570	1392.786133	3431.979980
-331.491484	1719.688570	1391.730469	3402.822021
-331.491484	1719.688570	1390.673828	3357.104248
-331.491484	1719.688570	1389.618164	3564.672607
-331.491484	1719.688570	1388.561523	3523.671631
-331.491484	1719.688570	1387.504883	3466.126465
-331.491484	1719.688570	1386.448242	3361.297119
-331.491484	1719.688570	1385.390625	3445.707275
-331.491484	1719.688570	1384.333984	3426.046143
-331.491484	1719.688570	1383.276367	3453.671387
-331.491484	1719.688570	1382.217773	3462.376953
-331.491484	1719.688570	1381.160156	3423.821045
-331.491484	1719.688570	1380.101563	3375.831787
-331.491484	1719.688570	1379.042969	3434.146973
-331.491484	1719.688570	1377.984375	3419.234619
-331.491484	1719.688570	1376.925781	3413.771973
-331.491484	1719.688570	1375.866211	3382.347412
-331.491484	1719.688570	1374.807617	3353.296387
-331.491484	1719.688570	1373.747070	3371.443359
-331.491484	1719.688570	1372.687500	3391.941162
-331.491484	1719.688570	1371.627930	3419.504395
-331.491484	1719.688570	1370.567383	3253.718506
-331.491484	1719.688570	1369.506836	3288.371094
-331.491484	1719.688570	1368.446289	3198.100830
-331.491484	1719.688570	1367.384766	3338.780273
-331.491484	1719.688570	1366.323242	3361.612061
-331.491484	1719.688570	1365.261719	3276.094238
-331.491484	1719.688570	1364.200195	3294.219727
-331.491484	1719.688570	1363.138672	3274.670166
-331.491484	1719.688570	1362.076172	3304.555908
-331.491484	1719.688570	1361.013672	3247.361572
-331.491484	1719.688570	1359.951172	3256.065674
-331.491484	1719.688570	1358.888672	3328.273682
-331.491484	1719.688570	1357.825195	3259.352295
-331.491484	1719.688570	1356.761719	3298.611572
-331.491484	1719.688570	1355.698242	3262.634521
-331.491484	1719.688570	1354.634766	3318.326172
-331.491484	1719.688570	1353.570313	3341.099121
-331.491484	1719.688570	1352.506836	3291.040771
-331.491484	1719.688570	1351.442383	3360.780273
-331.491484	1719.688570	1350.376953	3418.748779
-331.491484	1719.688570	1349.312500	3434.436035
-331.491484	1719.688570	1348.247070	3332.765381
-331.491484	1719.688570	1347.181641	3383.661377
-331.491484	1719.688570	1346.116211	3389.961182
-331.491484	1719.688570	1345.049805	3276.638184
-331.491484	1719.688570	1343.984375	3383.791748
-331.491484	1719.688570	1342.917969	3387.741699
-331.491484	1719.688570	1341.851563	3431.536865
-331.491484	1719.688570	1340.784180	3393.292236
-331.491484	1719.688570	1339.716797	3413.637207
-331.491484	1719.688570	1338.650391	3471.451416
-331.491484	1719.688570	1337.582031	3341.888184
-331.491484	1719.688570	1336.514648	3385.643799
-331.491484	1719.688570	1335.446289	3438.743408
-331.491484	1719.688570	1334.378906	3454.373535
-331.491484	1719.688570	1333.310547	3446.598145
-331.491484	1719.688570	1332.241211	3455.201172
-331.491484	1719.688570	1331.172852	3433.395264
-331.491484	1719.688570	1330.103516	3406.921875
-331.491484	1719.688570	1329.034180	3438.905029
-331.491484	1719.688570	1327.964844	3447.500732
-331.491484	1719.688570	1326.894531	3472.449707
-331.491484	1719.688570	1325.824219	3481.033447
-331.491484	1719.688570	1324.753906	3419.540771
-331.491484	1719.688570	1323.683594	3516.870850
-331.491484	1719.688570	1322.612305	3504.425537
-331.491484	1719.688570	1321.541992	3347.264160
-331.491484	1719.688570	1320.470703	3516.889893
-331.491484	1719.688570	1319.399414	3495.118896
-331.491484	1719.688570	1318.327148	3408.042236
-331.491484	1719.688570	1317.254883	3411.958008
-331.491484	1719.688570	1316.182617	3441.519775
-331.491484	1719.688570	1315.110352	3485.055176
-331.491484	1719.688570	1314.038086	3521.579102
-331.491484	1719.688570	1312.964844	3518.474365
-331.491484	1719.688570	1311.891602	3524.689453
-331.491484	1719.688570	1310.818359	3449.383057
-331.491484	1719.688570	1309.745117	3506.838379
-331.491484	1719.688570	1308.670898	3582.892578
-331.491484	1719.688570	1307.596680	3579.775879
-331.491484	1719.688570	1306.522461	3492.886963
-331.491484	1719.688570	1305.448242	3506.076660
-331.491484	1719.688570	1304.373047	3484.369873
-331.491484	1719.688570	1303.297852	3411.511230
-331.491484	1719.688570	1302.222656	3661.857910
-331.491484	1719.688570	1301.147461	3633.156494
-331.491484	1719.688570	1300.071289	3451.085693
-331.491484	1719.688570	1298.996094	3452.647705
-331.491484	1719.688570	1297.919922	3547.125977
-331.491484	1719.688570	1296.842773	3502.216553
-331.491484	1719.688570	1295.766602	3531.627930
-331.491484	1719.688570	1294.689453	3472.812744
-331.491484	1719.688570	1293.612305	3613.619385
-331.491484	1719.688570	1292.535156	3605.859375
-331.491484	1719.688570	1291.457031	3609.701660
-331.491484	1719.688570	1290.378906	3713.273926
-331.491484	1719.688570	1289.300781	3661.437988
-331.491484	1719.688570	1288.222656	3593.396484
-331.491484	1719.688570	1287.144531	3662.135254
-331.491484	1719.688570	1286.065430	3684.497314
-331.491484	1719.688570	1284.986328	3648.929443
-331.491484	1719.688570	1283.907227	3756.985596
-331.491484	1719.688570	1282.827148	3730.679443
-331.491484	1719.688570	1281.748047	3755.320068
-331.491484	1719.688570	1280.667969	3837.817627
-331.491484	1719.688570	1279.586914	3751.340332
-331.491484	1719.688570	1278.506836	3833.801025
-331.491484	1719.688570	1277.425781	3879.213867
-331.491484	1719.688570	1276.344727	3788.158447
-331.491484	1719.688570	1275.263672	3889.052002
-331.491484	1719.688570	1274.182617	3839.643555
-331.491484	1719.688570	1273.100586	3878.079590
-331.491484	1719.688570	1272.018555	3886.459961
-331.491484	1719.688570	1270.936523	3991.860596
-331.491484	1719.688570	1269.853516	3956.328857
-331.491484	1719.688570	1268.771484	3812.285889
-331.491484	1719.688570	1267.688477	3839.140137
-331.491484	1719.688570	1266.605469	3856.750000
-331.491484	1719.688570	1265.521484	3895.119141
-331.491484	1719.688570	1264.438477	3924.242676
-331.491484	1719.688570	1263.354492	3861.092773
-331.491484	1719.688570	1262.270508	3940.941895
-331.491484	1719.688570	1261.185547	3917.008301
-331.491484	1719.688570	1260.101563	3828.546143
-331.491484	1719.688570	1259.016602	3825.387451
-331.491484	1719.688570	1257.930664	3955.858154
-331.491484	1719.688570	1256.845703	3901.996338
-331.491484	1719.688570	1255.759766	3917.245361
-331.491484	1719.688570	1254.674805	4047.606689
-331.491484	1719.688570	1253.587891	3963.834473
-331.491484	1719.688570	1252.501953	3960.647217
-331.491484	1719.688570	1251.415039	4014.981934
-331.491484	1719.688570	1250.329102	3977.278564
-331.491484	1719.688570	1249.241211	4054.582764
-331.491484	1719.688570	1248.154297	4028.382813
-331.491484	1719.688570	1247.066406	4080.353271
-331.491484	1719.688570	1245.979492	4095.527344
-331.491484	1719.688570	1244.890625	4101.502930
-331.491484	1719.688570	1243.802734	4109.772949
-331.491484	1719.688570	1242.713867	4058.323730
-331.491484	1719.688570	1241.625000	4034.451416
-331.491484	1719.688570	1240.536133	4040.433594
-331.491484	1719.688570	1239.447266	4064.773926
-331.491484	1719.688570	1238.357422	3944.538818
-331.491484	1719.688570	1237.267578	4017.066162
-331.491484	1719.688570	1236.177734	3839.553467
-331.491484	1719.688570	1235.087891	3875.380859
-331.491484	1719.688570	1233.997070	3918.069580
-331.491484	1719.688570	1232.906250	3953.862061
-331.491484	1719.688570	1231.815430	3879.642334
-331.491484	1719.688570	1230.724609	3789.418213
-331.491484	1719.688570	1229.632813	3809.180176
-331.491484	1719.688570	1228.541016	3792.292480
-331.491484	1719.688570	1227.449219	3741.069092
-331.491484	1719.688570	1226.357422	3712.758301
-331.491484	1719.688570	1225.264648	3812.614990
-331.491484	1719.688570	1224.171875	3729.388672
-331.491484	1719.688570	1223.079102	3675.936279
-331.491484	1719.688570	1221.986328	3768.871582
-331.491484	1719.688570	1220.892578	3660.559326
-331.491484	1719.688570	1219.798828	3705.451172
-331.491484	1719.688570	1218.705078	3581.203369
-331.491484	1719.688570	1217.611328	3765.469238
-331.491484	1719.688570	1216.516602	3675.528320
-331.491484	1719.688570	1215.421875	3622.169189
-331.491484	1719.688570	1214.327148	3559.700439
-331.491484	1719.688570	1213.231445	3650.207764
-331.491484	1719.688570	1212.136719	3838.811768
-331.491484	1719.688570	1211.041016	3707.881836
-331.491484	1719.688570	1209.945313	3711.604736
-331.491484	1719.688570	1208.848633	3676.552979
-331.491484	1719.688570	1207.752930	3664.318848
-331.491484	1719.688570	1206.656250	3679.446289
-331.491484	1719.688570	1205.558594	3712.799805
-331.491484	1719.688570	1204.461914	3716.514893
-331.491484	1719.688570	1203.364258	3717.949707
-331.491484	1719.688570	1202.266602	3717.105957
-331.491484	1719.688570	1201.168945	3773.189941
-331.491484	1719.688570	1200.071289	3667.609131
-331.491484	1719.688570	1198.972656	3721.401855
-331.491484	1719.688570	1197.874023	3586.297363
-331.491484	1719.688570	1196.775391	3708.334717
-331.491484	1719.688570	1195.675781	3696.118652
-331.491484	1719.688570	1194.576172	3713.469727
-331.491484	1719.688570	1193.476563	3639.872314
-331.491484	1719.688570	1192.376953	3611.767822
-331.491484	1719.688570	1191.276367	3667.756592
-331.491484	1719.688570	1190.176758	3641.929443
-331.491484	1719.688570	1189.076172	3654.728027
-331.491484	1719.688570	1187.974609	3585.767090
-331.491484	1719.688570	1186.874023	3646.249756
-331.491484	1719.688570	1185.772461	3736.212646
-331.491484	1719.688570	1184.670898	3753.514648
-331.491484	1719.688570	1183.569336	3693.667725
-331.491484	1719.688570	1182.466797	3640.652588
-331.491484	1719.688570	1181.364258	3744.139404
-331.491484	1719.688570	1180.261719	3804.500000
-331.491484	1719.688570	1179.159180	3728.826660
-331.491484	1719.688570	1178.055664	3682.648682
-331.491484	1719.688570	1176.952148	3752.043457
-331.491484	1719.688570	1175.848633	3853.118652
-331.491484	1719.688570	1174.745117	3800.148438
-331.491484	1719.688570	1173.640625	3738.145020
-331.491484	1719.688570	1172.536133	3725.969971
-331.491484	1719.688570	1171.431641	3831.482910
-331.491484	1719.688570	1170.326172	3884.906738
-331.491484	1719.688570	1169.221680	3793.531494
-331.491484	1719.688570	1168.116211	3785.875977
-331.491484	1719.688570	1167.010742	3816.661377
-331.491484	1719.688570	1165.904297	3903.945557
-331.491484	1719.688570	1164.797852	3747.107422
-331.491484	1719.688570	1163.691406	3773.359863
-331.491484	1719.688570	1162.584961	3896.735840
-331.491484	1719.688570	1161.478516	3934.233154
-331.491484	1719.688570	1160.371094	3845.268066
-331.491484	1719.688570	1159.263672	3760.858154
-331.491484	1719.688570	1158.155273	3832.212646
-331.491484	1719.688570	1157.047852	3851.637207
-331.491484	1719.688570	1155.939453	3855.260986
-331.491484	1719.688570	1154.831055	3885.946777
-331.491484	1719.688570	1153.722656	3921.127441
-331.491484	1719.688570	1152.613281	3789.473389
-331.491484	1719.688570	1151.503906	3847.196533
-331.491484	1719.688570	1150.394531	3812.509277
-331.491484	1719.688570	1149.285156	3831.903076
-331.491484	1719.688570	1148.174805	3785.973145
-331.491484	1719.688570	1147.064453	3776.091064
-331.491484	1719.688570	1145.954102	3793.226807
-331.491484	1719.688570	1144.842773	3688.819092
-331.491484	1719.688570	1143.732422	3912.978516
-331.491484	1719.688570	1142.621094	3837.835205
-331.491484	1719.688570	1141.508789	3731.238770
-331.491484	1719.688570	1140.397461	3770.848389
-331.491484	1719.688570	1139.285156	3823.927246
-331.491484	1719.688570	1138.172852	3708.416504
-331.491484	1719.688570	1137.060547	3689.580078
-331.491484	1719.688570	1135.947266	3744.885498
-331.491484	1719.688570	1134.834961	3766.475586
-331.491484	1719.688570	1133.720703	3774.582275
-331.491484	1719.688570	1132.607422	3796.154297
-331.491484	1719.688570	1131.493164	3889.536377
-331.491484	1719.688570	1130.379883	3902.094971
-331.491484	1719.688570	1129.264648	3970.730957
-331.491484	1719.688570	1128.150391	3907.007568
-331.491484	1719.688570	1127.035156	3894.886230
-331.491484	1719.688570	1125.919922	3905.187744
-331.491484	1719.688570	1124.804688	3854.969971
-331.491484	1719.688570	1123.689453	3847.348877
-331.491484	1719.688570	1122.573242	4045.830811
-331.491484	1719.688570	1121.457031	3888.108398
-331.491484	1719.688570	1120.340820	3918.549072
-331.491484	1719.688570	1119.223633	3895.247559
-331.491484	1719.688570	1118.106445	3876.432617
-331.491484	1719.688570	1116.989258	3886.714844
-331.491484	1719.688570	1115.872070	3910.413818
-331.491484	1719.688570	1114.753906	3909.499268
-331.491484	1719.688570	1113.635742	4033.802246
-331.491484	1719.688570	1112.517578	4070.861572
-331.491484	1719.688570	1111.399414	4009.563721
-331.491484	1719.688570	1110.280273	3968.404053
-331.491484	1719.688570	1109.161133	4135.019531
-331.491484	1719.688570	1108.041992	4167.551270
-331.491484	1719.688570	1106.921875	4150.943359
-331.491484	1719.688570	1105.802734	4149.969238
-331.491484	1719.688570	1104.682617	4211.486328
-331.491484	1719.688570	1103.561523	4279.668457
-331.491484	1719.688570	1102.441406	4182.738770
-331.491484	1719.688570	1101.320313	4248.663574
-331.491484	1719.688570	1100.199219	4165.164063
-331.491484	1719.688570	1099.077148	4208.768555
-331.491484	1719.688570	1097.956055	4377.159180
-331.491484	1719.688570	1096.833984	4349.390137
-331.491484	1719.688570	1095.711914	4299.357422
-331.491484	1719.688570	1094.588867	4293.890137
-331.491484	1719.688570	1093.465820	4359.675781
-331.491484	1719.688570	1092.342773	4349.743652
-331.491484	1719.688570	1091.219727	4422.160156
-331.491484	1719.688570	1090.096680	4487.867188
-331.491484	1719.688570	1088.972656	4598.032227
-331.491484	1719.688570	1087.848633	4481.299805
-331.491484	1719.688570	1086.723633	4602.529785
-331.491484	1719.688570	1085.599609	4610.333496
-331.491484	1719.688570	1084.474609	4744.809082
-331.491484	1719.688570	1083.349609	4839.226563
-331.491484	1719.688570	1082.223633	4862.515625
-331.491484	1719.688570	1081.097656	4959.080078
-331.491484	1719.688570	1079.971680	5086.681641
-331.491484	1719.688570	1078.845703	5094.354980
-331.491484	1719.688570	1077.719727	5121.997070
-331.491484	1719.688570	1076.592773	5198.436523
-331.491484	1719.688570	1075.465820	5261.530273
-331.491484	1719.688570	1074.337891	5446.563965
-331.491484	1719.688570	1073.210938	5400.927734
-331.491484	1719.688570	1072.083008	5461.708984
-331.491484	1719.688570	1070.954102	5467.059082
-331.491484	1719.688570	1069.826172	5366.058594
-331.491484	1719.688570	1068.697266	5371.427246
-331.491484	1719.688570	1067.568359	5412.223633
-331.491484	1719.688570	1066.439453	5129.761230
-331.491484	1719.688570	1065.309570	5033.360840
-331.491484	1719.688570	1064.180664	5118.464844
-331.491484	1719.688570	1063.049805	4935.828613
-331.491484	1719.688570	1061.919922	4952.345703
-331.491484	1719.688570	1060.789063	4814.061523
-331.491484	1719.688570	1059.658203	4762.063477
-331.491484	1719.688570	1058.527344	4893.542480
-331.491484	1719.688570	1057.396484	4717.803223
-331.491484	1719.688570	1056.264648	4734.349121
-331.491484	1719.688570	1055.132813	4722.172852
-331.491484	1719.688570	1054.000000	4645.965820
-331.491484	1719.688570	1052.868164	4700.043945
-331.491484	1719.688570	1051.735352	4698.918457
-331.491484	1719.688570	1050.602539	4777.229004
-331.491484	1719.688570	1049.468750	4754.023438
-331.491484	1719.688570	1048.335938	4699.950684
-331.491484	1719.688570	1047.202148	4694.413086
-331.491484	1719.688570	1046.067383	4812.327148
-331.491484	1719.688570	1044.933594	4775.908691
-331.491484	1719.688570	1043.798828	4776.964355
-331.491484	1719.688570	1042.664063	4778.019043
-331.491484	1719.688570	1041.528320	4915.617676
-331.491484	1719.688570	1040.393555	4872.600586
-331.491484	1719.688570	1039.257813	4911.050781
-331.491484	1719.688570	1038.122070	4854.849609
-331.491484	1719.688570	1036.985352	4902.084961
-331.491484	1719.688570	1035.848633	4980.092285
-331.491484	1719.688570	1034.711914	4985.488770
-331.491484	1719.688570	1033.575195	4918.327637
-331.491484	1719.688570	1032.437500	4974.291016
-331.491484	1719.688570	1031.299805	4918.150879
-331.491484	1719.688570	1030.162109	5029.011719
-331.491484	1719.688570	1029.023438	5051.958008
-331.491484	1719.688570	1027.885742	4995.837402
-331.491484	1719.688570	1026.747070	4946.329102
-331.491484	1719.688570	1025.607422	4947.327148
-331.491484	1719.688570	1024.468750	4873.714844
-331.491484	1719.688570	1023.329102	4971.257813
-331.491484	1719.688570	1022.189453	4853.807129
-331.491484	1719.688570	1021.048828	4819.738770
-331.491484	1719.688570	1019.908203	4728.687500
-331.491484	1719.688570	1018.767578	4799.867188
-331.491484	1719.688570	1017.626953	4881.966797
-331.491484	1719.688570	1016.485352	4707.719727
-331.491484	1719.688570	1015.344727	4763.519043
-331.491484	1719.688570	1014.202148	4707.621094
-331.491484	1719.688570	1013.060547	4599.212402
-331.491484	1719.688570	1011.917969	4624.355469
-331.491484	1719.688570	1010.775391	4750.133789
-331.491484	1719.688570	1009.632813	4611.166992
-331.491484	1719.688570	1008.489258	4774.062988
-331.491484	1719.688570	1007.345703	4904.083008
-331.491484	1719.688570	1006.202148	5143.331543
-331.491484	1719.688570	1005.058594	5605.366211
-331.491484	1719.688570	1003.914063	5942.641113
-331.491484	1719.688570	1002.769531	6172.721680
-331.491484	1719.688570	1001.625000	5852.389160
-331.491484	1719.688570	1000.479492	5457.983887
-331.491484	1719.688570	999.333984	5166.355469
-331.491484	1719.688570	998.188477	5077.806152
-331.491484	1719.688570	997.042969	4847.496582
-331.491484	1719.688570	995.896484	5007.707520
-331.491484	1719.688570	994.750000	4823.316406
-331.491484	1719.688570	993.603516	4874.454102
-331.491484	1719.688570	992.456055	4881.976563
-331.491484	1719.688570	991.308594	4954.861816
-331.491484	1719.688570	990.161133	4931.861816
-331.491484	1719.688570	989.012695	4961.140625
-331.491484	1719.688570	987.865234	4916.375488
-331.491484	1719.688570	986.716797	4943.465332
-331.491484	1719.688570	985.567383	4905.253418
-331.491484	1719.688570	984.418945	4945.384766
-331.491484	1719.688570	983.269531	5176.911133
-331.491484	1719.688570	982.119141	5047.332520
-331.491484	1719.688570	980.969727	5189.579590
-331.491484	1719.688570	979.819336	5088.316406
-331.491484	1719.688570	978.668945	5310.883301
-331.491484	1719.688570	977.518555	5563.754883
-331.491484	1719.688570	976.367188	5684.010742
-331.491484	1719.688570	975.215820	6056.091309
-331.491484	1719.688570	974.064453	6317.271973
-331.491484	1719.688570	972.912109	6723.735840
-331.491484	1719.688570	971.760742	7145.186035
-331.491484	1719.688570	970.607422	7594.626465
-331.491484	1719.688570	969.455078	8243.367188
-331.491484	1719.688570	968.301758	9303.743164
-331.491484	1719.688570	967.148438	10166.334961
-331.491484	1719.688570	965.995117	10668.754883
-331.491484	1719.688570	964.840820	11552.243164
-331.491484	1719.688570	963.687500	12721.208984
-331.491484	1719.688570	962.532227	13192.297852
-331.491484	1719.688570	961.377930	13583.046875
-331.491484	1719.688570	960.222656	13843.732422
-331.491484	1719.688570	959.067383	13719.112305
-331.491484	1719.688570	957.912109	13237.596680
-331.491484	1719.688570	956.755859	12749.831055
-331.491484	1719.688570	955.599609	11844.984375
-331.491484	1719.688570	954.443359	11212.965820
-331.491484	1719.688570	953.286133	10514.263672
-331.491484	1719.688570	952.129883	9744.605469
-331.491484	1719.688570	950.972656	9083.335938
-331.491484	1719.688570	949.814453	8711.779297
-331.491484	1719.688570	948.656250	8329.611328
-331.491484	1719.688570	947.498047	7956.266113
-331.491484	1719.688570	946.339844	7522.683594
-331.491484	1719.688570	945.180664	7069.899414
-331.491484	1719.688570	944.022461	6789.891602
-331.491484	1719.688570	942.862305	6594.120605
-331.491484	1719.688570	941.703125	6340.239258
-331.491484	1719.688570	940.542969	6217.955566
-331.491484	1719.688570	939.382813	6067.720703
-331.491484	1719.688570	938.222656	5855.088379
-331.491484	1719.688570	937.061523	5668.405273
-331.491484	1719.688570	935.900391	5658.369629
-331.491484	1719.688570	934.739258	5562.235352
-331.491484	1719.688570	933.577148	5399.435547
-331.491484	1719.688570	932.415039	5312.018555
-331.491484	1719.688570	931.252930	5237.550293
-331.491484	1719.688570	930.090820	5128.712402
-331.491484	1719.688570	928.927734	5247.812988
-331.491484	1719.688570	927.764648	5050.902832
-331.491484	1719.688570	926.600586	5028.142090
-331.491484	1719.688570	925.437500	5035.467285
-331.491484	1719.688570	924.273438	4894.596680
-331.491484	1719.688570	923.108398	5009.307617
-331.491484	1719.688570	921.944336	5031.655273
-331.491484	1719.688570	920.779297	5019.653809
-331.491484	1719.688570	919.614258	4820.996582
-331.491484	1719.688570	918.448242	4922.736328
-331.491484	1719.688570	917.283203	4932.212891
-331.491484	1719.688570	916.116211	4855.927734
-331.491484	1719.688570	914.950195	4837.551270
-331.491484	1719.688570	913.783203	4705.613770
-331.491484	1719.688570	912.616211	4682.998047
-331.491484	1719.688570	911.449219	4662.534668
-331.491484	1719.688570	910.282227	4841.210449
-331.491484	1719.688570	909.114258	4726.527832
-331.491484	1719.688570	907.945313	4723.187012
-331.491484	1719.688570	906.777344	4619.288086
-331.491484	1719.688570	905.608398	4761.426758
-331.491484	1719.688570	904.439453	4708.892090
-331.491484	1719.688570	903.270508	4726.935059
-331.491484	1719.688570	902.100586	4648.785645
-331.491484	1719.688570	900.930664	4707.432129
-331.491484	1719.688570	899.759766	4684.869629
-331.491484	1719.688570	898.589844	4621.738281
-331.491484	1719.688570	897.418945	4684.614746
-331.491484	1719.688570	896.248047	4685.553223
-331.491484	1719.688570	895.076172	4692.892578
-331.491484	1719.688570	893.904297	4687.426270
-331.491484	1719.688570	892.732422	4658.498535
-331.491484	1719.688570	891.559570	4689.293945
-331.491484	1719.688570	890.387695	4628.399902
-331.491484	1719.688570	889.214844	4663.447754
-331.491484	1719.688570	888.041016	4660.122070
-331.491484	1719.688570	886.867188	4652.536621
-331.491484	1719.688570	885.693359	4791.906250
-331.491484	1719.688570	884.519531	4767.255371
-331.491484	1719.688570	883.344727	4740.487793
-331.491484	1719.688570	882.169922	4686.067871
-331.491484	1719.688570	880.995117	4795.496094
-331.491484	1719.688570	879.820313	4724.071777
-331.491484	1719.688570	878.644531	4837.685547
-331.491484	1719.688570	877.468750	4881.084473
-331.491484	1719.688570	876.291992	4888.328613
-331.491484	1719.688570	875.115234	4842.448242
-331.491484	1719.688570	873.938477	4796.590332
-331.491484	1719.688570	872.761719	4833.580078
-331.491484	1719.688570	871.583984	4904.520996
-331.491484	1719.688570	870.406250	4818.349609
-331.491484	1719.688570	869.228516	4687.658691
-331.491484	1719.688570	868.049805	4805.252930
-331.491484	1719.688570	866.871094	4816.736328
-331.491484	1719.688570	865.692383	4845.175781
-331.491484	1719.688570	864.512695	4716.729492
-331.491484	1719.688570	863.333008	4808.758301
-331.491484	1719.688570	862.153320	4760.899414
-331.491484	1719.688570	860.972656	4835.921387
-331.491484	1719.688570	859.791992	4855.844238
-331.491484	1719.688570	858.611328	4935.035156
-331.491484	1719.688570	857.430664	5056.515625
-331.491484	1719.688570	856.249023	4896.499512
-331.491484	1719.688570	855.067383	5009.463379
-331.491484	1719.688570	853.884766	4957.402344
-331.491484	1719.688570	852.703125	4977.256348
-331.491484	1719.688570	851.519531	4925.229004
-331.491484	1719.688570	850.336914	4849.981445
-331.491484	1719.688570	849.153320	4876.183105
-331.491484	1719.688570	847.969727	4921.379883
-331.491484	1719.688570	846.786133	4879.975098
-331.491484	1719.688570	845.601563	4874.479492
-331.491484	1719.688570	844.416992	4862.654297
-331.491484	1719.688570	843.232422	4901.473633
-331.491484	1719.688570	842.046875	4895.973633
-331.491484	1719.688570	840.862305	4932.652832
-331.491484	1719.688570	839.675781	5015.695313
-331.491484	1719.688570	838.490234	4963.795898
-331.491484	1719.688570	837.303711	4954.066895
-331.491484	1719.688570	836.117188	4946.448730
-331.491484	1719.688570	834.929688	4962.000977
-331.491484	1719.688570	833.742188	4916.482422
-331.491484	1719.688570	832.554688	4879.407227
-331.491484	1719.688570	831.367188	4909.692383
-331.491484	1719.688570	830.178711	4761.129395
-331.491484	1719.688570	828.990234	4875.562012
-331.491484	1719.688570	827.800781	4678.719727
-331.491484	1719.688570	826.612305	4704.817871
-331.491484	1719.688570	825.422852	4775.036621
-331.491484	1719.688570	824.232422	4689.733398
-331.491484	1719.688570	823.042969	4608.675293
-331.491484	1719.688570	821.851563	4722.961914
-331.491484	1719.688570	820.661133	4763.705078
-331.491484	1719.688570	819.469727	4718.370605
-331.491484	1719.688570	818.278320	4918.567383
-331.491484	1719.688570	817.086914	4967.615234
-331.491484	1719.688570	815.895508	4955.815430
-331.491484	1719.688570	814.703125	5050.953125
-331.491484	1719.688570	813.509766	5116.692871
-331.491484	1719.688570	812.317383	5010.558594
-331.491484	1719.688570	811.124023	4912.859375
-331.491484	1719.688570	809.929688	4850.817383
-331.491484	1719.688570	808.736328	4853.718750
-331.491484	1719.688570	807.541992	4754.042480
-331.491484	1719.688570	806.347656	4646.046875
-331.491484	1719.688570	805.152344	4504.631348
-331.491484	1719.688570	803.957031	4572.460449
-331.491484	1719.688570	802.761719	4472.960449
-331.491484	1719.688570	801.566406	4444.592773
-331.491484	1719.688570	800.370117	4481.030273
-331.491484	1719.688570	799.172852	4488.194824
-331.491484	1719.688570	797.976563	4447.309570
-331.491484	1719.688570	796.779297	4435.682129
-331.491484	1719.688570	795.582031	4413.620605
-331.491484	1719.688570	794.383789	4458.362305
-331.491484	1719.688570	793.186523	4400.831055
-331.491484	1719.688570	791.987305	4372.535645
-331.491484	1719.688570	790.789063	4410.992676
-331.491484	1719.688570	789.589844	4299.307129
-331.491484	1719.688570	788.390625	4356.521484
-331.491484	1719.688570	787.191406	4388.697754
-331.491484	1719.688570	785.991211	4402.105469
-331.491484	1719.688570	784.791016	4390.511719
-331.491484	1719.688570	783.589844	4378.922852
-331.491484	1719.688570	782.388672	4444.361816
-331.491484	1719.688570	781.187500	4409.870605
-331.491484	1719.688570	779.986328	4450.297363
-331.491484	1719.688570	778.784180	4528.141113
-331.491484	1719.688570	777.582031	4501.970215
-331.491484	1719.688570	776.379883	4384.342285
-331.491484	1719.688570	775.176758	4416.415527
-331.491484	1719.688570	773.973633	4444.314453
-331.491484	1719.688570	772.769531	4283.173340
-331.491484	1719.688570	771.566406	4381.696777
-331.491484	1719.688570	770.361328	4222.733398
-331.491484	1719.688570	769.157227	4317.067383
-331.491484	1719.688570	767.952148	4481.897949
-331.491484	1719.688570	766.747070	4341.702637
-331.491484	1719.688570	765.541992	4440.073242
-331.491484	1719.688570	764.335938	4318.622559
-331.491484	1719.688570	763.129883	4394.144531
-331.491484	1719.688570	761.922852	4370.161133
-331.491484	1719.688570	760.716797	4402.122559
-331.491484	1719.688570	759.509766	4400.929688
-331.491484	1719.688570	758.301758	4445.286133
-331.491484	1719.688570	757.093750	4510.316895
-331.491484	1719.688570	755.885742	4444.942871
-331.491484	1719.688570	754.677734	4584.412598
-331.491484	1719.688570	753.468750	4448.732910
-331.491484	1719.688570	752.259766	4350.343750
-331.491484	1719.688570	751.049805	4545.533691
-331.491484	1719.688570	749.840820	4372.774414
-331.491484	1719.688570	748.629883	4408.770996
-331.491484	1719.688570	747.419922	4267.122559
-331.491484	1719.688570	746.208984	4418.757324
-331.491484	1719.688570	744.998047	4266.859863
-331.491484	1719.688570	743.787109	4397.772949
-331.491484	1719.688570	742.575195	4547.181641
-331.491484	1719.688570	741.363281	4403.621094
-331.491484	1719.688570	740.150391	4431.285645
-331.491484	1719.688570	738.937500	4388.844238
-331.491484	1719.688570	737.724609	4305.207520
-331.491484	1719.688570	736.511719	4316.390625
-331.491484	1719.688570	735.297852	4319.327637
-331.491484	1719.688570	734.083984	4419.044922
-331.491484	1719.688570	732.869141	4434.301758
-331.491484	1719.688570	731.654297	4426.911133
-331.491484	1719.688570	730.439453	4431.868164
-331.491484	1719.688570	729.223633	4432.707520
-331.491484	1719.688570	728.007813	4415.038086
-331.491484	1719.688570	726.791992	4520.726563
-331.491484	1719.688570	725.576172	4441.383301
-331.491484	1719.688570	724.359375	4392.902832
